-0.10449,-0.18099,0.048536,0.15056,0.023029,0.15056,0.17606,0.15057,-0.053451,-0.2065,-0.12999,-0.23201,-0.181,-0.079008,0.12506,0.2526,0.30363,0.2526,-0.078972,-0.33404,-0.30854,-0.15553,-0.027969,0.023047,0.099528,0.20155,0.20158,0.22709,-0.002448,-0.13,0.099559,-0.12998,-0.30852,-0.053476,0.12505,0.074038,0.17608,-0.002467,-0.002454,0.048543,-0.25753,-0.18101,-0.10449,0.099564,0.023035,0.099546,0.12506,0.12505,0.12509,-0.12998,-0.20652,-0.18103,-0.078984,0.048555,0.12506,0.023041,-0.027956,-0.078984,-0.002472,0.074062,0.04858,-0.12999,0.048536,-0.10452,-0.13002,0.023041,0.25259,0.27809,0.099577,-0.20649,-0.28302,-0.23202,-0.02798,0.09957,0.099564,0.074038,0.12505,0.048543,0.099564,0.074062,-0.027969,-0.13001,-0.18102,0.048543,0.074057,0.048536,0.30361,0.099564,-0.12998,-0.33404,-0.25753,-0.02798,0.074069,-0.027962,0.048549,0.17607,0.048549,0.048555,-0.05347,0.048543,-0.053476,-0.15549,-0.10447,0.22708,0.17607,0.15057,0.099559,0.12504,-0.027969,-0.078984,-0.05347,-0.1045,-0.2065,-0.30854,0.15057,0.2781,0.22711,0.15059,0.074038,-0.027987,-0.002472,-0.181,-0.13001,-0.027998,0.20159,0.22711,0.12507,0.12505,-0.053482,-0.232,-0.33404,-0.13,-0.027956,0.15059,0.074044,0.3036,0.22709,0.048561,-0.18101,-0.28307,-0.002461,0.074075,0.17608,-0.053506,0.023005,0.099552,-0.078972,0.023047,-0.2065,-0.002448,0.048561,-0.181,-0.23203,0.099534,0.099546,0.17609,0.22708,0.12507,-0.078972,-0.20652,-0.28305,-0.12999,-0.25751,0.17607,0.2526,0.074044,0.074057,0.27809,-0.053464,-0.12999,-0.078996,-0.15551,-0.10449,-0.027969,-0.002497,0.15057,0.22708,0.099552,-0.002461,0.023059,-0.15549,-0.25751,0.074069,0.17608,0.074026,0.17604,0.099564,0.048561,-0.053458,-0.2065,-0.1045,-0.25753,-0.181,0.074062,0.12507,-0.002479,-0.053464,-0.002448,0.1251,-0.053476,-0.15551,0.074038,-0.002454,0.2526,0.12507,0.074051,-0.10448,-0.15551,-0.25753,-0.10448,-0.05347,-0.25752,-0.078984,0.12504,0.35461,0.20159,0.2016,0.22708,0.048561,-0.20649,-0.25752,-0.18102,0.023054,-0.12997,-0.10452,0.074038,0.2781,0.35464,-0.053464,-0.23203,-0.15553,-0.13002,-0.10448,0.074062,0.22709,0.09954,0.30363,0.30363,0.12508,-0.23204,-0.053506,0.023041,-0.30854,-0.20652,0.15054,0.17607,0.20161,-0.053458,-0.10449,0.12507,-0.002454,-0.12999,-0.13001,0.17607,0.35462,0.27812,0.15058,-0.15553,-0.33407,-0.2065,-0.15549,-0.25753,-0.078977,0.048531,0.22708,0.2781,0.25261,0.15056,-0.10449,0.023047,-0.078966,-0.20652,-0.13001,-0.053482,0.12505,-0.002454,0.15057,0.15055,-0.002467,-0.181,-0.12999,-0.053482,-0.13,0.09957,0.2781,0.38013,0.40563,0.22708,-0.053451,-0.38505,-0.33405,-0.23204,-0.2065,0.074057,0.048518,0.074038,0.048555,0.048543,0.2271,-0.15548,-0.10449,0.023047,0.074075,0.074051,0.048531,0.023041,0.023035,0.023023,0.074051,-0.027969,-0.18101,-0.25753,-0.10447,0.12509,0.17608,0.17606,0.023041,-0.078977,-0.053482,0.048555,0.048555,-0.30854,-0.5636,0.12507,0.55869,0.20159,-0.13002,-0.027993,0.15057,-0.078966,-0.28303,-0.33406,-0.15551,0.09957,0.2271,0.15059,0.27809,0.22707,-0.078977,-0.10447,-0.12999,-0.25753,-0.12999,-0.078972,0.048555,0.15056,0.023023,0.17606,0.12509,0.023059,-0.15552,-0.20653,-0.1045,0.15054,0.12505,0.074069,-0.027969,-0.027956,-0.078972,-0.053464,-0.0535,-0.027974,0.15058,0.45667,-0.1045,0.099552,-0.15549,-0.13002,-0.35959,-0.18103,0.20159,0.12509,0.20161,0.048549,-0.15551,-0.15554,0.15056,0.32915,0.63528,0.25262,-0.56363,-0.94624,-0.64017,0.2271,0.2271,0.099521,0.2271,0.50769,0.40564,0.023047,-0.51258,-0.35958,-0.078984,-0.027969,-0.053495,-0.15551,0.22716,0.48219,0.53316,0.2271,-0.23202,-0.61468,-0.23208,-0.15549,0.023054,-0.33404,-0.13001,0.023017,0.30363,0.83932,0.27813,-0.33405,0.12504,-0.20659,-0.74218,-0.30858,0.58424,-0.33406,0.048525,0.71177,0.76277,-0.4871,-0.92073,-0.027998,1.0434,-0.33406,-0.84422,-1.0738,-0.053476,-0.35957,0.81381,0.22711,0.22709,-0.027987,1.0178,0.89027,-0.20652,-1.686,-0.79321,0.45671,0.7883,-0.10452,-0.84417,0.60972,0.45664,-0.35953,-0.74221,-0.053482,0.17606,0.22708,-0.15553,-0.079026,-0.05347,0.023078,-0.053451,0.27815,0.48217,0.40561,-0.51262,0.074069,-0.1555,-0.002467,-0.28303,-0.35957,-0.33404,-0.20648,0.3292,-0.46164,-0.56372,0.66071,0.17605,0.43117,0.4312,0.12509,-0.30858,-0.74219,-0.48708,0.074081,0.38017,-0.15548,-1.2013,-0.28301,0.38016,0.55866,0.7372,0.63517,-0.13001,-0.4871,0.35461,0.023029,-0.002461,-0.33402,-1.3543,0.38017,0.78824,0.048506,0.023029,0.40565,0.30364,-0.05531,-0.0535,-0.58911,-0.56366,-0.48714,-0.41058,0.50766,0.73725,0.43117,0.27819,-0.53805,0.76275,-0.15555,-0.79324,-0.41058,1.2219,0.38014,-0.56366,-0.25754,-0.38503,0.8903,-0.15552,-0.30854,-1.1248,-0.53815,1.0178,0.58422,0.22711,0.58417,0.30363,-0.71666,-0.89525,0.023017,0.12509,-0.74216,0.40566,0.32912,0.32917,0.8138,-0.05347,-0.51258,0.023072,0.12513,0.22705,0.073995,-0.028011,-0.028005,-0.15557,-0.25759,-0.25746,-0.538,-0.35951,1.2219,0.66065,0.17605,-0.48713,-0.053482,0.40561,-1.0737,0.83937,0.43121,0.91583,-0.66565,-1.1248,-0.48714,0.99239,-0.5126,0.55864,-0.58918,0.8137,-0.15556,0.099595,0.35466,-0.51252,-0.69116,-0.3851,0.38017,-0.13003,0.60975,0.60976,0.3801,-0.053531,-0.18107,-0.078959,0.53318,-0.25754,-0.3085,-0.58903,-0.38506,-0.25752,0.32899,1.2473,0.30359,-1.0482,0.60986,-0.66564,0.048469,-0.81878,0.022968,0.96679,0.76277,-0.33399,0.5842,-1.5839,0.35465,-0.79321,0.99234,1.5025,0.12507,-1.0737,-0.79319,-0.58915,-0.20653,-0.23207,-0.35956,0.38012,0.6607,0.20159,0.4567,0.45669,-0.18097,0.27806,-0.079051,-0.053464,-0.92066,-0.43608,0.94135,0.60973,-0.28311,-0.053544,-0.002534,-0.23201,-0.76769,0.32915,0.22719,0.35465,-0.30856,-0.10449,-0.18107,0.27806,0.32915,-0.23196,-0.43606,-0.66563,1.0943,0.6352,0.43111,-0.053525,0.074013,-0.79322,-0.43609,0.30366,-0.43609,-0.1045,0.27814,0.074069,-0.1555,-0.38506,0.30358,0.45659,0.2271,0.12512,-0.35953,-0.43602,-0.12992,0.12498,-0.28305,-0.66569,0.12502,0.60964,0.99229,0.68627,-0.18103,-0.58909,-1.0737,0.66067,0.55871,-0.12999,0.22709,-0.61463,-0.53814,-0.027993,0.099583,-0.18101,1.0688,1.1964,-1.2268,0.12505,0.55868,-1.0993,-0.078928,-0.33404,-0.74222,0.50766,0.96677,0.25257,-0.13002,0.17612,-0.38505,-0.078984,-0.5381,-1.0228,0.96684,0.66074,-0.10447,-0.20652,-0.23207,0.074013,0.099461,0.32912,-0.053397,-0.15551,-0.15551,-0.33403,-0.28306,0.048525,0.78826,0.35459,0.22708,-0.74218,-1.5584,0.83936,1.4515,-1.0483,-0.64018,0.71175,1.1199,-0.71667,-1.788,1.2474,-0.20652,-0.41058,-1.0738,-0.30856,-0.002479,0.43117,0.78823,0.99229,0.53319,-0.35954,-0.4361,0.35467,-0.15552,-0.48706,-0.33398,-0.15551,-0.5126,0.35459,0.20153,0.074013,-0.078972,-0.20644,0.099546,-0.002472,0.17609,-0.46154,0.58413,1.0178,0.66067,-0.74218,-1.2523,-0.61459,1.1964,-0.35963,0.55866,0.12505,-0.41055,0.6353,0.55872,0.50766,-0.66566,-0.69117,-0.23203,-0.053433,-0.4616,-0.76773,0.76277,1.4259,0.25257,-0.38506,-0.35954,-0.15551,-0.43609,0.43111,0.15065,0.023072,-0.079045,-0.51257,0.12509,0.32907,0.25258,0.22708,-0.28304,-0.027938,0.35467,-0.58908,-0.079008,-0.33412,0.81373,0.63518,-0.002485,-0.23201,-0.15551,-0.86967,-0.58911,-0.053476,1.4004,1.8341,0.099552,-1.2014,-0.027944,-0.69115,-0.23194,-1.2268,0.27809,1.3494,0.40562,-0.74221,-0.51265,-0.002497,-0.35956,0.83934,0.83933,-0.71666,-0.61467,-0.53807,-0.12995,0.3291,0.60968,0.20159,-0.12999,-0.10453,0.30363,-0.053451,-0.23201,-0.35954,-0.30861,0.20155,-0.10457,0.17607,-0.58909,0.60973,0.40566,-0.99723,-0.28302,1.477,-0.33405,-1.788,-0.10451,0.6352,-0.002467,0.40568,0.074093,0.73729,0.6607,-0.3851,0.50768,-0.51263,-0.74221,-0.23203,0.09957,-0.002448,-0.20654,-0.35953,-0.53806,0.099588,0.048536,0.27807,0.45664,0.1506,0.09957,0.53318,0.048518,-0.28304,0.022998,0.048506,-0.30856,-0.28297,0.15057,0.099588,-0.283,-0.18097,-0.25753,0.94129,-0.51267,-1.0738,-0.46156,0.45666,0.40561,0.35461,0.7883,-0.10443,-0.35952,-0.97175,-0.10452,0.35456,0.99226,0.048543,0.40565,0.43119,-0.56358,-0.46156,-0.33405,-0.58922,-0.25755,0.27815,0.15064,0.074062,0.32908,0.30363,0.12513,-0.15553,-0.00251,0.07402,-0.25748,-0.84409,-0.3085,0.023041,0.81369,0.27805,-0.51266,0.35463,0.099564,0.48221,-0.15549,-1.0738,0.048561,0.40567,-0.38509,-0.74216,-0.079008,0.8903,-0.43609,0.35461,-0.3086,0.63521,0.27814,0.32913,0.12508,-0.33407,-0.99724,-0.99723,-0.13001,-0.10449,0.50764,0.12505,0.17609,0.32917,0.30364,-0.05347,0.27811,0.17604,-0.10458,-0.079021,-0.23197,-0.28297,0.17604,-0.2575,0.12506,0.71175,0.53317,-1.4563,-1.0483,-0.41058,0.35461,0.43113,0.2781,0.7883,-0.41059,0.32915,-0.41056,0.58419,0.38013,-0.20651,-0.30858,-0.20651,0.27814,0.63516,0.048518,-0.30857,-0.66561,0.12507,-0.30858,-0.23202,0.12504,0.27808,0.023084,-0.33394,-0.20649,0.4056,0.12497,0.6352,-0.12989,-0.38506,-0.10452,0.12505,-0.25751,0.17601,0.12502,0.20156,-0.078972,0.17615,0.17612,-0.69115,-0.64014,-0.84425,0.76272,0.20159,1.1199,0.68627,0.17614,-0.43604,-0.58914,-0.9718,-0.3341,0.02298,1.0178,0.32913,0.30366,-0.20652,-0.4871,0.30365,0.58426,-0.33402,-0.64018,0.17599,0.32912,-0.35951,-0.35945,-0.35951,0.40549,0.1761,0.27808,0.048506,0.023023,-0.002448,0.68622,0.048604,-0.181,-1.0738,0.20156,0.63523,0.63523,-0.027944,-1.0993,-0.33406,-0.51263,-0.15548,0.81376,-0.02798,0.40566,0.63521,-0.33411,-2.0176,-0.10448,0.81383,0.6862,0.17607,0.71173,0.40564,-0.079002,-0.05347,-0.56364,-0.56362,-0.23204,-0.28302,-0.28301,0.023121,0.58415,0.4821,-0.078935,-0.15547,-0.10452,0.20158,-0.079021,-0.43605,-0.10453,0.45662,0.81374,0.32913,-0.56361,-0.53807,-0.10449,0.20164,-0.23203,-0.61468,-0.053495,0.71175,0.96683,0.43116,-0.4361,-0.89517,0.17613,-1.1248,-0.41061,0.17606,0.86477,0.58419,1.0178,0.81378,-0.53815,-1.1758,-0.5381,-0.078977,0.15055,-0.28303,-0.027931,0.023084,0.32909,0.45656,0.023047,-0.69102,-0.10452,-0.079002,0.27805,0.40563,0.1506,0.023114,-0.0535,-0.1045,-0.053482,0.1251,-0.18099,-0.71666,-1.2268,-0.25755,0.91578,0.17603,0.50766,1.1454,-0.25756,-0.30855,-0.79318,0.048629,-0.35959,-0.51265,0.27809,0.22707,0.86477,0.35462,0.22715,-0.18098,-0.33405,-0.18104,-0.35957,-0.25754,-0.43607,-0.69108,0.38013,0.96681,0.20156,-0.51265,-0.23202,-0.13,0.12503,0.35458,-0.002412,-0.18093,0.66064,0.43108,-0.35959,-0.33409,0.32914,1.324,-1.5073,-1.2013,0.25256,0.22706,1.2984,1.1454,-0.35956,-0.48709,-1.1503,-0.61463,-0.002454,-0.0535,-0.002485,0.30364,0.63518,0.43118,0.0741,0.27813,-0.48705,0.58416,-0.41066,-0.94623,-0.38503,0.099595,0.40563,0.023017,0.76277,0.43112,-0.30852,-0.5381,-0.20652,0.17601,0.22705,-0.027944,0.25262,-0.10448,-0.46154,0.1761,0.099577,0.32914,0.38014,-0.51263,-0.48713,-0.97173,0.55867,0.45664,0.45666,-0.23202,-0.002448,-0.74217,-0.23202,0.60969,0.86477,0.81375,0.35461,-0.5126,-0.56356,-0.30852,-0.33408,0.023047,-0.48709,0.023023,-0.25759,0.12511,0.89029,0.12509,0.12508,-0.10453,-0.35953,-0.58913,0.43107,0.58411,0.43112,0.53317,0.20158,-0.30847,-0.10441,-0.53809,-0.43612,-0.74217,-0.74218,-0.28302,0.60972,1.2729,0.45667,-0.002461,0.25262,-0.38509,-0.61465,-0.38505,0.48218,0.27812,-0.23209,0.71172,0.17609,-0.232,-0.20656,0.25257,0.32912,-0.64015,-1.1503,0.074118,0.71177,-0.053531,0.27805,0.17615,-0.15543,-0.25751,-0.64011,0.48203,0.32908,0.53312,0.17606,0.023054,-0.33401,-0.20649,-0.46158,0.25267,0.73725,0.43115,-0.3851,-1.5074,-0.86972,-0.53815,0.048531,1.4004,0.99233,0.15062,-1.0483,-0.027962,0.43117,0.17609,0.3291,-0.46163,-0.20653,-0.28302,-0.10444,-0.18097,-0.13002,-0.079008,0.22709,-0.079021,-0.28298,0.1251,0.48206,0.15054,-0.07891,-0.25749,0.074057,-0.078984,-0.23198,0.3546,0.22703,-0.25757,-0.74207,0.30365,-0.002467,0.099546,-0.2065,-0.8442,0.45669,0.099534,0.48214,-0.10452,0.35464,0.1251,-0.33404,-0.079008,-0.51259,-0.51256,-0.53813,0.38014,0.91577,0.38014,0.55866,-0.15551,-0.51252,-0.078972,-0.027938,-0.079039,-0.10459,-0.23202,-0.33402,-0.56355,0.63517,0.68619,0.25254,-0.002472,-0.002418,-0.05347,-0.33409,-0.25749,0.12505,0.27815,0.66068,-0.1045,0.074057,0.55869,0.4312,-0.58914,-1.2778,-0.33405,0.074013,0.55869,0.63522,-0.53815,0.35465,0.32917,-0.20655,-0.76765,-0.2065,0.17607,0.48216,0.09954,0.2526,-0.13002,-0.69113,0.17609,-0.15555,0.50767,0.22706,-0.7677,-0.46156,0.32931,0.83928,-0.23204,-0.13003,0.30355,0.48206,-0.028018,-0.13002,-0.20654,-0.027969,-0.33404,0.32917,0.66072,0.73727,-0.81869,-0.94621,-0.2065,-1.2778,0.30364,1.1198,0.43113,0.78825,0.68621,-0.35958,-0.51264,-0.28302,-0.35954,-0.10447,0.38013,0.15057,0.048585,0.43117,-0.20658,-0.10453,0.048555,-0.43604,-0.33404,-0.38516,0.38008,0.66074,0.27812,-0.10443,-0.053519,-0.48708,-0.33402,0.074069,0.22707,0.023017,0.45666,0.099577,-0.51254,0.074051,0.27811,0.27806,0.17607,-0.30852,-1.7114,-0.58914,1.3749,0.4311,0.099528,0.86478,-0.28307,-0.078972,-0.92072,0.20163,0.27815,-0.027974,0.38012,-0.078977,-0.48711,-0.10456,-0.13004,-0.41053,0.048604,0.9668,0.099528,-0.56354,-0.41058,-0.23202,0.48212,0.27808,0.17611,-0.028042,-0.002461,0.048561,-0.027938,0.20155,0.22707,-0.33406,-0.69118,0.48219,0.12508,-0.71666,0.35467,0.55873,0.38016,-0.43607,-0.53813,0.55866,-0.64021,0.099546,0.35464,-0.002436,0.02309,0.71175,-0.30858,-1.0737,0.60968,0.76274,0.074013,-0.76771,0.73726,0.38013,-0.33404,-0.71659,-0.84412,-0.33404,0.099503,0.53308,0.45658,0.17609,-0.12988,0.073995,-0.12998,0.0741,0.04858,-0.15551,0.073989,0.15054,0.63522,-0.46157,-0.7677,0.20161,-0.51258,-0.053439,-0.8442,0.86478,0.48214,1.0178,0.32912,-0.43608,-0.61467,-0.10449,-0.33405,0.023054,0.20163,-0.002485,-0.38508,0.0741,0.15055,0.35458,0.27809,-0.10449,-0.23201,-0.25749,-0.25752,0.099588,0.22707,0.22707,-0.10449,0.25256,-0.002443,-0.07899,-0.2575,0.25256,-0.18106,0.20158,-0.25753,0.32915,0.66075,-0.84426,0.2271,0.15061,-0.027969,-0.43606,-0.7932,0.048536,0.60973,-0.07899,-0.20653,0.17606,0.12507,-0.12999,-0.002454,1.0179,0.20159,-0.56366,-1.1503,0.71178,0.8648,0.22702,-0.18105,-0.23203,-0.46157,-1.0226,-0.38502,0.17603,0.48208,-0.23202,0.25259,0.58414,0.12508,0.048585,-0.027993,0.048555,-0.1555,0.12509,-0.02795,-0.56362,-0.64018,0.96681,-0.13,-0.12998,0.20161,-0.079008,-0.66565,-0.30856,0.94127,0.86478,-0.18098,-0.51262,-0.079008,-0.28303,0.38014,-0.13001,0.023047,-0.4871,-0.20649,0.63521,0.76273,0.17604,-0.028018,-1.0227,-0.18092,-0.027956,-0.053544,-0.79312,0.048549,-0.1045,0.5076,0.45659,0.023029,0.17607,0.35465,-0.053464,-0.15548,-0.12997,0.15059,-0.181,0.40564,-0.28305,-0.35954,-0.46157,-0.23206,0.2526,0.55872,-0.15553,0.9668,0.43112,-0.18103,-0.92073,-0.76763,-0.002405,0.27809,0.25257,-0.13002,0.27811,0.17607,-0.027987,0.12504,0.074051,-0.12996,-0.35946,-0.5636,0.048525,0.27809,-0.078977,-0.33401,0.22712,0.25259,-0.053458,0.40557,0.48206,0.17604,-0.12998,-0.94608,-0.18093,0.68617,0.25255,-0.61468,-1.0738,0.73723,1.0689,0.27815,-0.33407,-0.41054,-0.66564,-0.027987,0.55869,0.099559,0.048549,0.2271,-0.25754,-0.58916,0.074038,-0.053451,0.023114,0.07402,-0.028018,0.023035,0.55866,0.17609,0.27809,-0.15548,-0.283,-1.1247,-0.23203,0.35467,0.60968,0.048469,0.048482,-0.079008,0.32915,0.45666,-0.46161,-0.7932,-1.1758,1.579,0.48219,-0.078972,0.45667,-0.20656,-0.61463,-0.23197,-0.027944,0.048561,0.17606,0.5842,-0.25761,-0.28312,-0.027993,0.2016,0.83929,0.099595,-0.078947,-0.30852,-0.61468,0.20158,0.17609,-0.6146,-0.18091,0.27811,0.17603,0.12504,0.022992,-0.10451,-0.12999,0.099626,-0.027931,0.023041,-0.002454,0.25256,0.35461,0.15057,-0.30855,-0.94621,-0.283,0.9158,1.0433,-0.12999,-1.2268,-1.4054,-0.35957,0.1251,0.4567,0.78828,0.32911,1.426,0.81376,-0.56364,-0.66564,-0.38514,-0.84424,0.50772,0.22712,-0.86964,-0.51262,0.25252,0.099552,0.32915,0.023047,0.43119,0.38019,-0.30856,-0.28311,-0.053506,-0.18097,-0.078966,0.66069,-0.15549,0.023108,-0.002497,-0.41061,0.022998,0.074013,0.15058,-0.92073,-0.79318,0.96686,0.71174,0.63518,0.32913,-0.078972,-0.4871,-0.53814,-0.51258,-0.33406,-0.13003,-0.1045,0.12509,1.1709,0.94131,-0.25752,-0.078996,-0.69115,-0.69115,-0.48706,0.25257,0.45659,0.30353,0.2526,-0.41051,-0.18095,-0.15544,0.099608,-0.13006,-0.1045,0.22707,0.32908,0.35458,0.22712,0.38014,-0.84419,0.25266,-0.1045,-0.58912,-0.41057,-0.078977,0.99234,0.099546,-0.12999,0.12507,0.32915,0.35467,-0.13001,-0.35961,-0.76772,-0.94623,0.074044,0.9158,1.1199,0.50768,0.023041,0.2271,-0.002467,-0.181,-0.56358,-0.89517,-0.18106,-0.027993,0.15057,0.32908,0.22707,0.099564,-0.12996,-0.56349,-0.027944,0.45659,0.22705,0.38012,0.48216,-0.28305,-0.20652,-0.99725,0.45672,0.099637,-0.97177,-0.20657,0.5587,0.43117,-0.15553,0.12508,0.074057,-0.181,0.17608,-0.4871,-0.58915,0.12505,0.40562,0.22713,0.099552,0.96683,-0.48714,-0.71672,0.35462,0.3802,-0.66554,-0.48708,-0.053488,-0.027956,0.63512,0.32905,0.17606,0.17607,0.074062,-0.33403,-0.078972,-0.12996,-0.48703,-0.15553,0.3291,0.83925,0.20159,-0.46157,-0.53809,0.074051,-0.9973,0.63519,0.40566,0.40563,0.12506,0.60974,-0.43607,-0.46159,-0.15549,-0.18104,-0.43608,-0.12999,0.048531,0.50767,0.63521,0.63521,-0.71665,-0.64018,-0.53814,0.074093,0.60973,0.15057,0.099552,-0.58917,0.45668,0.78825,0.25259,-0.64008,-0.079008,-0.33407,0.022998,0.20155,0.63517,-0.15548,0.074069,-0.053495,-0.38508,-0.64015,-0.18095,0.1506,0.66073,-0.18103,0.25259,0.32912,0.38013,-0.86972,-0.23198,0.27816,0.40561,-0.20655,-0.053513,0.17603,0.35463,-0.053464,0.27809,0.99235,-0.23203,-0.56361,-0.64014,-0.89518,0.43117,0.60969,-0.053519,0.17606,0.27806,0.074075,-0.46153,-0.053433,-0.078972,-0.48711,-0.079026,0.4311,0.40557,-0.18098,0.43118,0.099644,0.43112,-0.46164,-0.35956,0.25259,0.58419,-0.23203,-0.38508,-0.18101,0.048549,-0.33406,0.099626,-0.18098,0.35464,-0.002497,0.15059,-0.002485,0.15057,-0.15554,0.35464,-0.078984,-0.30851,-0.13,-0.18104,-0.33407,0.09957,-0.18101,0.40563,-0.053458,0.3036,-0.027956,-0.1045,-0.43601,-0.15549,0.15059,-0.10452,-0.15549,0.48208,0.38007,0.17607,0.15053,-0.10452,0.55873,0.38016,-0.84424,-0.25754,0.32918,-0.12999,-0.89521,-0.7167,0.68622,0.17612,0.38019,-0.23202,0.099564,-0.33407,0.074057,0.83927,0.3291,-0.86976,0.023023,0.2271,-0.35958,-0.48706,-0.41055,-0.13001,0.27812,0.60967,0.50765,0.023017,-0.46151,0.12522,-0.12998,-0.64018,-0.13007,0.35455,0.45663,0.40566,-0.23193,-0.23197,0.099528,0.15059,0.023029,-0.25755,0.15059,-0.35956,-0.053513,0.074038,-0.43614,0.32915,-0.283,0.35465,1.1199,-0.69119,-0.58914,-0.20653,0.099559,-0.078984,0.40571,0.91582,0.27808,0.3801,-0.23204,-0.23205,-0.56361,-0.33404,0.3546,-0.027993,-0.20657,-0.38503,0.22721,0.12516,-0.33393,0.32903,-0.05358,-0.079033,-0.38499,-0.10446,-0.002461,0.53314,0.30361,-0.05347,-0.2575,-0.25748,-0.23203,-0.20651,0.074062,0.35463,-0.92074,0.15059,0.55869,1.1709,0.15057,-0.48711,-0.51259,-0.30851,-0.61465,-0.15557,-0.0535,0.63522,0.30363,-0.13002,0.73725,0.2781,0.66077,-0.181,-0.56365,-0.61462,0.048555,-0.028011,-0.10453,0.048536,-0.078953,-0.18096,-0.41055,-0.28304,0.35455,0.45659,0.27809,0.099608,0.099595,0.43116,-0.58916,-0.25755,-0.12999,0.048585,-0.002399,0.27806,0.22708,0.43121,0.1761,-0.61463,-0.58916,0.074044,-0.61465,-0.20653,0.81374,0.48214,0.27809,0.09957,-0.41059,-0.28304,-0.181,0.023065,0.25265,0.20161,-0.02798,0.048525,-0.20653,0.60971,-0.053488,-0.33409,-0.56358,-0.33398,-0.15551,0.099521,0.25259,0.4566,0.20155,0.099546,0.02309,-0.33403,-0.23201,-0.053458,-0.078972,-0.41058,0.023041,0.53317,0.27809,0.35462,0.17609,-0.23204,-0.99723,-0.078953,-0.5381,0.15056,0.27806,1.5024,0.43116,-0.23203,-1.0993,0.38016,0.35468,-0.23202,-0.38506,-0.51257,-0.61457,-0.12995,0.38008,0.27809,0.27804,-0.13007,0.20155,0.25259,-0.28301,-0.23197,-0.10443,0.2526,0.22708,0.15055,-0.46156,-0.23193,0.12509,0.30356,-0.053531,-0.10451,-0.027962,0.2526,0.023035,-0.10455,0.074013,0.55872,-0.64012,-0.66559,-1.0227,0.66075,0.71173,0.15054,-0.30857,-0.028042,0.40561,0.27812,-0.69116,-0.30856,0.66075,0.40569,-0.35957,-0.002461,0.55866,-0.079014,-0.33404,-0.027974,0.048561,-0.18101,-0.86972,-0.079039,0.66075,0.048585,-0.35951,0.07402,0.45666,0.099595,0.023005,-0.18103,-0.28303,-0.25756,-0.13002,0.48218,0.55871,-0.20652,-0.053482,0.074075,-0.58913,-0.053446,0.074118,0.15056,-0.23207,-0.002461,1.0433,0.30361,-0.86974,-0.43609,1.3239,0.99234,-1.0483,-0.89524,-0.33411,0.20158,0.58423,0.22708,0.12503,-0.56361,-0.81866,-0.8696,0.023054,0.38006,0.35459,0.48216,0.099626,0.43117,0.27816,0.023029,0.20155,-0.48713,-0.48711,-0.64006,-0.66558,0.12509,0.50758,1.1198,0.17606,-0.61463,0.25259,-0.10453,-0.23198,-0.43604,-1.7115,0.20159,1.0688,1.2219,0.76274,-0.13,-0.58912,0.38015,-0.35955,-0.92074,0.09957,-0.002485,-0.13004,-0.64017,0.27816,0.048555,0.68624,0.5587,-0.41054,-0.35958,-0.13005,-0.15553,-0.28296,-0.30852,0.63518,-0.18101,0.66076,0.60971,-0.20658,-0.51266,-0.33406,0.12501,0.048506,-0.002436,-0.053446,0.02309,-0.41053,0.20163,0.023041,0.15056,-0.56362,0.27817,0.60967,-0.43616,-0.38509,0.45672,0.81376,0.55872,-1.0992,-0.81868,-0.25754,0.76272,0.12506,0.40564,0.15056,-0.58914,-0.38503,0.15055,0.73727,-0.5381,-0.74214,-0.02798,0.048512,0.68619,0.40565,-0.028011,0.22704,-0.027907,-0.4615,-0.20652,-0.41061,-0.053506,0.2781,0.32915,0.15055,-0.20655,0.91575,0.6352,-0.86974,-0.76769,-0.53811,0.38015,-0.64013,0.58422,0.45669,0.32917,0.25265,0.023059,-0.94625,-0.76772,-1.0228,0.20156,0.20161,0.48218,0.55871,0.45666,0.27813,0.15058,-0.30852,-0.35957,-0.33409,0.074038,0.2271,0.048543,-0.10449,-0.002485,-0.13001,-0.181,-0.23197,0.074075,-0.20655,0.15061,0.20156,0.38011,0.40568,0.86479,-0.48716,-1.3033,-1.2013,-0.078996,0.8648,1.4004,0.38014,-1.5074,-0.9207,0.25261,1.1709,0.89036,-0.23202,-0.20654,-1.2523,-0.002503,0.25259,0.71173,-0.15555,-0.41058,-0.30857,-0.12999,-0.002436,-0.12998,0.38013,0.32907,0.074033,0.15062,-0.25748,0.099608,0.35463,-0.20656,-0.3851,-0.002461,0.45658,0.58412,-0.053476,-0.181,-0.12998,0.4567,-0.35956,-1.2778,-0.74217,0.99234,0.73727,-0.53814,0.074081,0.17607,0.3036,-0.027993,0.32913,-0.51262,-0.64017,0.04858,0.20159,0.25258,0.074033,0.53319,0.12504,-0.48711,0.43121,-0.99721,-0.15549,-0.23197,-0.25745,0.38014,0.53306,0.38008,0.17607,-0.1045,0.17607,-0.18101,-0.51257,-0.002479,-0.02798,0.09957,0.048561,-0.002448,0.023072,0.76272,-0.027993,-0.181,-0.46154,-0.30855,-0.64019,-0.18105,0.63516,0.83925,0.68622,0.35468,-0.46155,-1.2013,-1.2778,-0.05347,1.1454,0.71171,-0.1045,0.32915,-0.027969,0.50768,-0.002461,-0.38506,-0.18101,-0.13001,-0.0535,-0.20649,-0.13,0.15056,0.22707,0.12502,0.27811,-0.20652,-0.48705,-0.61457,-0.10448,0.22706,0.38008,0.048549,0.17606,0.2781,-0.25749,-0.30853,0.38015,0.50767,-0.027998,-0.1555,-0.13002,-0.15551,-0.38506,-0.41058,-0.10448,0.45668,-0.30856,0.38015,0.45668,-0.35951,0.099564,-0.18109,0.76272,0.30364,0.048543,-0.56368,-0.41059,0.074111,0.25262,-0.13003,-0.18105,-0.25753,0.023084,0.25259,0.22705,0.27808,-0.15551,-0.41051,-0.053427,0.2271,0.50763,0.15054,0.76272,0.22707,-0.23204,-0.66567,-0.56359,0.074081,-0.23203,-0.25754,0.50767,0.20158,0.35463,-0.002467,0.048555,-0.71664,-0.74209,-0.76766,0.55864,1.2474,0.17604,0.63519,0.55869,0.15056,-0.41059,-0.46156,-1.0482,-0.99717,0.35461,0.30357,0.074033,0.099521,0.48213,0.023029,0.32912,0.15065,-0.58911,-0.12998,0.22712,0.1761,-0.027969,0.3036,-0.18104,-0.86966,0.12502,0.25255,0.45667,-0.078917,-0.1555,0.43112,0.35462,0.074044,-0.20654,-0.07899,-0.48709,-0.66564,-0.23201,0.96681,0.55869,0.22708,-0.38509,-0.7422,0.074087,0.99234,0.30367,-0.41059,-1.4564,-0.86972,0.86478,0.35463,0.17609,0.35461,-0.18102,0.15058,0.2271,0.15057,-0.23199,-0.56356,-0.51257,0.099521,0.22706,0.8137,-0.33404,0.048536,-0.20653,0.5332,0.12507,-0.33405,-0.20653,-0.053476,-0.18101,0.1506,-0.07899,-0.30855,0.099577,-0.002443,0.023072,-0.64015,0.048525,0.15056,-0.4106,0.53318,0.38013,0.7628,-0.15548,-0.35954,0.22707,0.32908,-0.20656,-0.13002,-0.18102,-0.027944,-0.027925,0.12513,0.55872,0.099577,-0.43615,-0.84426,-0.74219,0.32917,0.40568,0.099583,0.66065,0.55866,-0.079002,-0.69104,-0.30851,0.023047,-0.23208,0.66064,0.45659,-0.20659,0.27809,0.66075,-0.002412,-1.2778,-1.0482,0.50771,-0.13004,0.15057,0.68624,0.40566,0.22708,-0.23207,-0.66567,-0.1045,-0.12998,0.25263,0.12505,-0.23209,0.73726,0.40566,-0.027969,-0.38508,0.12504,-0.25752,-0.33409,-0.33406,-0.35953,0.12513,-0.23191,0.45665,0.71166,0.17602,0.22703,-0.0535,-0.33401,-0.23199,-0.33403,-0.053519,0.2781,0.09957,-0.10448,-0.20649,-0.38504,0.99234,0.66074,-0.97177,-1.2013,0.38012,0.48216,0.30358,0.50765,-0.20649,-0.027931,0.30365,-0.13,-0.53812,0.048512,0.38014,-0.10449,-0.07899,0.17606,-0.25754,0.1251,0.048567,0.20159,0.12504,0.20155,-0.1045,-0.15548,-0.25751,-0.12998,0.12505,0.2271,-0.69111,-0.61465,0.099521,0.58414,0.38011,0.66072,0.43114,0.32912,-0.283,-0.38506,-1.1503,-0.61458,0.30364,-0.28308,-0.23208,0.76273,1.0943,0.78826,-0.38505,-1.1248,-0.7167,-0.23202,-0.027962,0.5587,0.60968,0.27808,0.20159,-0.053402,-0.23201,-0.4616,0.099552,-0.15552,-0.18104,0.27811,0.099577,-0.078935,-0.15546,-0.10449,0.20158,-0.079021,-0.71671,-0.48708,0.20161,0.60969,0.40563,0.78828,0.73726,-0.69112,-0.58914,0.12507,-0.25756,-1.9665,-0.15551,1.8086,1.2219,0.15057,-0.053519,-0.25757,-0.64018,-0.18101,0.25263,1.3495,-0.94624,-1.0993,-0.97176,0.20158,0.50767,0.5332,0.17612,0.35466,0.32914,-0.13,-0.53812,-0.10451,-0.053488,-0.12998,0.12505,0.27806,0.20156,0.15058,-0.18098,-0.48703,-0.05347,0.45661,0.12503,-0.053488,0.15056,0.048543,-0.10448,0.55873,0.20164,-0.71665,-1.3289,-0.86971,0.76275,-0.07899,0.89024,0.78823,0.048567,-0.12999,0.099577,-0.79322,0.66073,-0.28304,-0.20651,0.43116,-0.23208,-0.25752,-0.23198,-0.35952,-0.38508,-0.56362,0.15051,0.099552,0.35464,0.22711,0.22704,0.12508,-0.10446,-0.38503,0.074093,0.12507,-0.15549,0.22707,-0.28305,-0.053513,0.35462,0.25262,-0.25751,-0.18102,-0.30854,-0.3085,-0.30854,0.81376,-0.23205,-0.58914,0.22707,0.83928,0.53321,0.048536,-0.30855,0.71177,-0.28302,-0.92074,-0.15556,0.048518,-0.15554,-0.053488,0.38016,0.38016,0.023072,-0.28296,-0.2065,-0.20653,0.30356,0.25257,-0.181,0.22708,0.099588,0.074087,0.32914,-0.027993,-0.35961,-0.30854,-0.10444,-0.43604,-0.002479,0.5332,0.53317,0.022998,-0.027969,-0.66567,-0.7422,0.94131,0.32915,-0.02798,0.30363,0.68627,-0.10449,-0.99727,-0.79321,-0.64016,0.074106,0.38019,0.50763,0.38013,0.27811,0.45666,0.1506,0.074044,-0.28306,0.048555,-0.66568,-0.51258,0.35464,0.27809,0.15054,0.15054,-0.078947
-0.10449,-0.23199,-0.25751,-0.002454,-0.05347,-0.4871,-0.38508,0.17606,0.60967,0.43113,0.17609,-0.07899,-0.13001,-0.002454,-0.15548,-0.002448,-0.053482,-0.027993,-0.28304,-0.35954,-0.05347,0.09957,0.074051,-0.027969,-0.078966,0.048561,0.25259,0.3291,0.15057,0.074044,0.074038,-0.13001,-0.30855,-0.15549,0.20159,-0.02795,-0.027956,-0.027969,-0.053476,0.099559,-0.027998,-0.079002,-0.181,0.12508,0.048543,-0.078972,0.023059,0.3291,0.25257,-0.053488,-0.002472,0.12506,-0.078996,-0.23202,-0.10445,-0.078959,-0.05347,-0.002448,-0.078996,-0.13002,-0.078977,0.023035,-0.10451,-0.027956,-0.002454,0.074069,0.1251,0.12507,0.22708,0.12505,0.12502,0.099528,-0.28306,-0.30858,-0.25752,-0.20651,0.40566,0.30365,0.17607,0.17609,-0.027974,-0.25754,-0.25753,-0.33405,-0.13001,0.20162,0.32913,0.38011,0.25259,0.09954,-0.002497,-0.20652,-0.20652,-0.053476,0.048561,-0.002436,0.074044,-0.28306,-0.25753,0.25259,0.048561,-0.078953,-0.1555,-0.20652,-0.027956,0.17609,0.25259,0.40564,-0.0535,-0.13002,-0.18102,-0.18102,-0.1555,-0.10447,0.15059,0.023059,-0.078972,0.074069,-0.002485,-0.002467,0.023041,-0.20653,-0.053482,0.20161,0.023054,-0.0535,-0.027962,0.35464,-0.002497,-0.002479,-0.15551,-0.10451,-0.18101,-0.05347,-0.002479,-0.181,-0.002443,0.3036,0.099552,-0.05347,0.074044,-0.053476,-0.232,0.12508,0.22709,0.099588,0.048543,0.20153,0.099534,-0.15551,-0.20656,-0.48711,-0.23201,-0.002448,0.12509,0.048585,0.27812,0.55866,0.3036,-0.10449,-0.18101,-0.28305,-0.30853,-0.002472,0.048549,-0.15548,0.023041,-0.10452,-0.10449,0.12508,0.25259,-0.12999,-0.1555,0.074051,0.17607,-0.027962,0.15059,0.2781,0.20156,-0.027974,-0.10448,-0.027969,-0.10452,-0.15551,-0.12999,-0.053482,0.12505,-0.002461,0.15057,-0.027987,0.023017,-0.15549,-0.181,-0.13,-0.078959,0.1251,0.074062,0.12506,-0.10449,0.20158,-0.28306,-0.1555,-0.078984,-0.053488,0.074069,0.22708,0.15054,0.12507,0.22708,0.27812,-0.002461,-0.25753,-0.41055,-0.10449,-0.13002,-0.20649,0.12507,0.25259,-0.15553,-0.15553,-0.20652,0.55869,0.15057,0.074057,0.048573,0.22712,-0.027969,-0.1555,-0.33406,-0.07899,-0.0535,-0.13002,-0.10449,-0.12998,0.15055,0.074057,0.17609,0.32911,-0.002485,-0.15551,-0.002454,0.023047,-0.181,-0.25751,-0.12999,0.048549,0.25259,0.22708,0.074051,0.15057,-0.002485,-0.46155,-0.25752,-0.10453,-0.002479,0.25262,0.30362,0.27809,-0.002461,0.099546,-0.13004,-0.30854,-0.10447,-0.23202,0.30366,0.074093,-0.43611,-0.20653,-0.002454,0.2781,0.22709,-0.35953,-0.002485,0.048525,-0.053464,-0.18101,0.15054,0.12502,0.12504,-0.10449,-0.027987,0.048561,-0.053451,0.12507,0.099588,-0.02792,0.023047,0.074062,0.074051,-0.053506,-0.10451,-0.23202,-0.41058,-0.25752,0.048555,0.074062,0.22709,0.3546,0.27808,0.17608,0.048506,-0.20655,0.099583,0.023059,-0.25753,-0.053451,0.074081,-0.10449,0.20159,0.30362,-0.13002,-0.76768,-0.58911,0.35465,0.66072,0.12509,0.0485,0.50766,0.22708,-0.00254,-1.0993,0.43117,0.0741,-0.76757,-0.027925,0.45666,-0.28305,0.9923,-0.1045,-0.23202,-0.48716,-0.3341,-0.56365,0.22706,0.50773,0.023065,0.20161,-0.30852,0.40563,0.32913,0.53318,-0.41063,-0.10457,0.1761,-0.25754,0.12514,-0.053495,0.58421,-0.30855,-0.86973,-0.61467,-0.33407,-0.1044,-0.10445,0.25263,0.89033,-1.0484,0.048482,0.022992,1.3749,0.50767,0.43121,-0.69118,0.12509,0.73726,-1.3288,0.38017,0.81379,-1.1759,0.048561,-0.002491,-0.28313,-0.53818,0.30359,0.35469,0.60975,-0.20643,-0.078917,0.55862,0.45655,-0.48715,-0.33396,-0.51252,-0.079051,0.17601,0.38016,0.78825,0.43112,0.074069,-0.15551,-1.0738,-1.0227,-0.2575,0.91588,0.83925,-0.18102,-0.053519,0.94114,-0.76755,-0.43607,-0.10456,0.22707,-0.10451,-0.12996,-0.58905,0.60968,1.4259,1.3493,-0.35957,-0.8952,-0.51256,-0.25759,-0.15557,-2.1706,2.0637,-0.15546,-0.15549,0.78829,0.12507,-0.8187,-0.81871,-0.74217,0.58424,0.43117,0.5587,0.27811,0.48209,0.20153,0.20156,-0.41054,-0.69107,-0.18098,-0.1301,0.58413,-0.64018,0.48228,1.6554,0.99226,-0.3851,-1.1502,-0.8952,-0.35956,-0.027969,-0.28303,0.074002,0.023065,0.58421,0.63522,0.76272,-0.56367,-0.84426,-0.18103,-0.078953,0.91586,0.22709,0.81375,0.35464,-0.58914,-0.33405,0.55867,1.3495,-0.61463,-1.635,0.099564,-0.66565,0.22713,0.074057,0.25258,-0.28305,0.27813,-0.078996,-0.18103,-0.13003,0.22705,0.32915,-0.436,0.023139,0.30358,1.2982,-0.15546,-0.56354,-0.30847,-0.23205,0.50757,-0.053433,-0.69119,0.25255,-0.97182,0.25258,-0.6147,0.78828,0.99235,-0.9462,0.048647,0.2017,0.58428,0.048561,0.22521,0.32721,0.40372,-0.15557,0.94133,-1.3033,-1.2014,-1.2779,0.48218,0.0741,-0.2575,-0.41061,-0.053482,0.3291,0.2526,0.17614,-0.053482,-0.69113,0.25265,0.68624,0.22712,0.17603,0.30356,0.22716,0.58414,0.048438,0.023029,-0.46159,-1.1247,-1.5583,-0.51254,1.579,1.1198,0.30352,0.68624,-1.5074,-1.2269,0.35465,0.35475,0.91587,0.60974,-0.53815,0.12504,1.1964,-0.30856,-1.0993,-0.15553,-0.5381,-0.71662,0.35465,0.45667,-0.053544,0.55869,0.25265,-0.02792,0.63517,0.73709,-0.20653,-0.74208,-0.181,0.5076,-1.1502,-0.028005,1.4004,0.50766,-0.86977,-1.737,0.43118,-0.10446,0.17612,-0.33405,1.7576,1.3239,-1.0483,-1.89,-1.8645,0.074057,0.45661,0.63524,1.8596,1.3239,1.0178,0.073995,-0.20659,-0.9462,-1.8134,-0.6401,-0.053482,-0.027938,-0.33404,-0.43611,0.48208,0.68618,0.5587,0.58417,0.2016,-0.07907,0.3036,-0.38497,0.25252,0.27806,0.2271,0.71176,-0.76771,-0.99725,-1.4053,1.0434,1.8596,-1.0482,-2.0431,0.20153,1.528,-0.51267,-0.28311,0.35461,-0.053488,1.0943,0.20162,0.35463,-0.69109,-0.15547,0.76272,0.76267,-0.25754,-0.71656,-0.3596,-0.48716,-0.97176,-0.10444,-1.3034,0.43121,0.78822,-0.20643,0.12501,0.3801,-0.027871,0.22707,0.60976,0.12506,-0.51263,0.099577,0.43112,-0.61468,-0.92076,-0.66562,1.0689,0.58422,0.71174,-0.61463,0.12506,0.60972,-0.15553,-0.12999,-0.20656,0.17605,-0.20656,-0.46159,-0.71664,-0.35946,-0.053439,0.35464,0.3546,0.91562,-0.002552,0.023047,-0.5635,-0.30851,0.099552,0.20159,0.15062,0.30364,-0.8187,0.60968,0.55859,0.43113,0.32917,-0.20652,-1.0737,-0.84414,-0.94622,1.0943,0.32908,0.35465,-0.23203,-0.1045,-0.20645,0.66075,0.89031,0.40562,-0.35959,-0.13005,-0.41057,0.66068,0.023072,-0.84412,-0.23204,0.07402,-0.12999,-0.18098,-0.078984,-0.46169,0.099668,0.60972,0.27813,0.40562,0.43113,-0.23205,-0.15549,-0.53806,0.30353,0.20155,0.12509,-0.078935,0.17609,0.30369,-0.30856,-0.25753,0.074062,-0.15545,-0.74212,-0.99725,0.048476,-0.58919,1.5024,2.0126,1.7576,-0.35956,-1.4819,-0.84424,-0.079008,0.17605,-0.46151,-0.28301,-0.15546,-0.30852,0.38011,0.68621,0.55865,-0.28311,-0.92072,-0.41049,-0.23184,0.20159,0.73708,0.30349,0.48209,0.12504,-0.18103,-0.027882,-1.0483,0.30358,1.2729,0.43118,-0.43604,-0.48703,-0.38503,0.43115,-0.002485,-2.6043,-0.13,0.73723,1.2474,-0.079021,0.60973,0.94137,0.27811,-0.35956,-0.18099,-0.58911,-0.33403,-0.53809,-0.053573,0.12494,0.25262,-0.027956,-0.078879,0.53317,-0.28305,-0.28305,-0.35951,0.32904,0.27808,-0.002467,0.43112,0.12509,0.32915,-0.1045,-0.23203,0.12512,-0.1555,0.17609,-0.61462,0.43117,-0.53817,-0.61465,1.0179,-0.53814,-0.18101,0.43117,-0.94627,0.63523,0.91578,0.48214,0.15055,-0.64013,-1.0227,-0.53815,0.15059,0.25265,0.55875,0.63519,-0.002497,-0.33407,0.048555,0.20164,0.17606,-0.25756,-0.69119,-0.66565,0.58417,0.35459,-0.1045,-0.28294,0.099559,0.50771,0.02301,-0.18103,0.5332,-0.61451,0.074002,-0.43613,-0.002479,0.22706,0.17604,0.12504,-0.002454,0.3547,0.12511,-0.41058,-0.10449,0.12504,-0.38511,0.38019,0.27813,-0.20652,-0.078984,-0.43606,-1.0227,-0.28305,0.35461,0.27805,0.12503,0.40565,0.83927,-0.76758,-0.15553,0.20155,0.17607,0.40563,-0.078904,0.2781,0.20155,0.66067,0.074051,-0.64003,0.048555,-0.28306,-0.94627,-0.41054,-0.25751,0.2271,0.38013,0.60972,-0.76771,-0.71667,0.099588,-0.35958,-0.027895,0.71174,-0.079021,0.17603,0.099534,0.63521,0.81368,0.17606,0.12503,-0.56353,-0.86961,-0.58907,-0.64015,0.3801,0.25251,0.45667,0.17609,-0.053439,-0.23201,-0.30862,0.53317,0.38013,-0.23205,0.15059,-0.30846,-1.1502,0.22704,0.55866,0.53312,0.22706,-0.30853,-0.51262,0.35465,0.4312,0.12508,-0.10447,-0.48713,0.17607,0.023072,0.27812,0.35467,0.35468,0.02298,-0.20655,-0.86975,-0.28303,-0.002467,-0.079014,-0.12996,-0.027962,0.32912,-0.15546,0.30361,0.48211,-0.38502,0.099521,-0.15551,0.099546,0.074044,0.20158,0.38014,-0.15553,-0.33408,-0.43603,-0.20657,0.40569,0.8903,-0.33403,-0.15554,-0.79316,-0.56361,-0.23204,0.71173,0.48216,0.83925,-0.41055,-0.51262,-0.30856,0.71171,0.048543,-0.23203,-0.41058,-0.76772,0.023023,1.1964,-0.51246,-0.89512,-0.10455,0.27803,0.17605,0.15054,-0.10445,0.048598,0.40577,0.17606,-0.64017,0.45657,0.074038,0.074062,-0.053488,0.2526,-0.61465,0.074228,0.5332,-0.89512,-1.0994,0.32904,1.5279,0.38018,-1.788,-0.078966,-0.33403,0.4312,0.099662,0.38021,1.0178,0.099485,-0.46164,-0.33401,-0.12998,-0.33407,-0.05347,0.66067,0.12501,-0.35962,0.22704,0.3036,-0.053415,-0.28297,-0.20649,-0.66555,-0.15557,0.35456,0.91573,-0.3341,0.50768,0.66078,-0.10447,-0.10448,-0.86977,-0.18101,0.074093,-0.43608,-0.66563,0.78825,0.17607,0.68624,-0.07899,-0.002436,-0.30855,0.074051,1.2729,0.2271,0.20159,-0.61468,-0.76772,-1.0483,-0.53814,-0.23202,0.38016,-0.078959,-0.002436,0.30365,0.35465,0.50766,0.2781,0.25263,-0.33405,-0.5637,0.074044,-0.12994,-0.43604,0.27806,0.099521,0.17606,0.48213,0.12502,-0.12998,-0.15549,-1.7369,0.4312,0.27814,1.9106,-1.0739,-0.46162,0.66069,0.81375,0.074087,-1.2268,-1.3543,-0.81868,0.66072,0.68625,0.4056,0.074033,0.48218,0.5077,0.099583,-0.12998,-0.30859,-0.10448,0.12502,-0.4106,-0.53814,0.074075,0.81378,0.023017,-0.15551,-0.92056,0.022992,-0.20653,0.048494,0.12502,0.35458,0.50775,-0.92073,0.048531,0.40568,0.35468,-0.18097,0.074038,0.35463,0.02301,-0.43612,0.55866,-0.81871,0.12506,0.48222,0.63526,-0.027925,-0.64018,-1.0483,-0.1045,0.35458,-0.13004,0.22712,0.099613,0.15065,0.2526,-0.94621,-0.027889,0.35469,0.32905,0.12497,0.12499,0.074038,0.20161,-0.20646,-0.25748,-0.18102,0.17603,-0.43607,-0.053513,-0.10452,0.89027,0.27814,-1.3798,0.023078,1.2219,-0.25753,-0.92069,-0.30851,-0.28308,1.528,0.66069,0.5332,0.048585,-1.1248,-0.30855,0.78825,-0.23203,-0.66565,-0.86977,-0.002516,1.0943,-0.38509,-0.18111,-0.13002,-0.053378,-0.35934,0.0741,0.63521,0.17597,0.55861,0.15057,0.50773,0.2016,-0.3851,-0.28306,0.50769,-1.1503,-1.4818,-0.46154,0.60963,0.55866,0.48215,1.2984,0.074038,0.02301,0.048567,-0.35956,-0.66565,-0.51263,-0.15549,-0.053433,-0.25748,0.58419,0.78825,0.58419,0.22707,-0.078984,-0.76764,-0.8187,-0.56364,-0.43611,-0.10452,0.76275,0.099577,0.32912,-0.02806,0.25265,0.25267,-0.48708,0.48214,0.40561,-0.25753,-1.1756,0.074044,0.73714,0.55864,-0.18102,-0.94624,-0.69119,0.91578,-0.38508,-0.07899,0.20156,0.76283,1.2219,-1.1758,-1.0738,-0.23204,0.43118,0.22712,0.25259,0.32913,0.50765,0.38014,-0.20652,-0.71665,0.023005,0.3036,0.32912,-0.33402,-0.18103,-0.23191,0.1505,-0.053525,0.22706,-0.25746,-0.23197,-0.002467,0.43109,0.40559,0.27809,0.2526,-0.13002,-0.25753,-0.25751,-0.078947,-0.02792,-0.35954,0.68624,-0.99729,0.099564,-0.18099,0.50769,0.43111,1.1708,-0.002448,-1.0738,-1.4819,0.38018,1.0178,0.89028,0.53315,0.073989,0.02301,0.048567,-0.38503,-0.23199,-0.94614,-0.89514,-0.15554,0.15052,0.22708,0.25257,-0.35953,-0.028029,0.22707,-0.02795,0.22707,0.50762,0.45666,0.32917,-0.18095,0.023108,0.63518,-0.46157,-1.2523,-0.15553,0.76276,-0.18104,-0.56366,-0.20653,0.50764,0.22708,0.66076,-1.0993,0.048561,-0.20654,0.50773,-0.078917,0.17606,-0.43609,-0.35961,0.40561,0.20156,0.048592,-0.6401,-0.027944,-0.23202,0.4566,1.1198,-0.078977,-0.20653,0.099588,-0.02792,-0.56358,-0.89519,-0.18104,0.023072,0.30363,0.94137,0.099461,0.074026,-0.28303,-0.283,-0.33404,-0.10445,0.60971,-0.66566,0.6607,-0.02798,0.25258,0.4566,-0.00251,-0.30852,-0.28298,-0.58913,0.5077,-0.33401,-0.81866,0.55866,1.1708,0.3291,-0.053488,-0.1555,-0.15549,-0.002461,0.074038,-0.61456,-0.1299,-0.74217,0.12506,0.53317,0.94125,0.27805,-0.079026,-0.28309,-0.28303,0.50771,-0.30851,-1.0738,-0.15555,0.53314,0.6607,0.32911,0.58427,0.17612,-0.05347,-1.3544,-0.92074,1.0433,0.68619,0.48216,-1.3799,2.1147,0.58427,-1.6605,-1.635,-0.71669,0.099564,0.12505,0.38014,1.0943,0.38016,0.023041,-0.2065,-0.28306,-0.48708,-0.53812,-0.053446,0.35465,0.32907,0.023078,0.73718,0.5587,-0.53807,-0.69116,-0.00251,0.02298,-0.181,-0.15549,0.12508,0.43118,-0.23203,-0.51262,0.78833,0.81384,-1.5329,-0.38506,-0.56361,-0.6912,-0.07899,1.0178,1.1198,0.32911,0.58423,0.15065,0.2526,-0.58911,-0.4361,-0.15557,0.09954,0.38011,0.02301,0.15054,-0.23197,-0.10446,-0.28297,-0.74206,-0.25751,0.53314,0.30357,0.25257,0.12499,0.32904,0.09957,0.25259,0.58422,-0.61463,-0.71663,0.074087,0.12509,0.40565,0.53315,0.48217,-0.00243,-0.71663,-0.99725,0.15056,-0.23207,-0.58913,-0.002423,0.25262,0.20158,0.38012,0.32908,0.099595,0.12507,-0.25753,-0.48706,0.6607,-0.002472,0.074044,0.12501,0.12503,-0.69111,-0.43605,-0.79319,-0.5381,0.55873,0.43118,0.22712,-0.07891,0.5586,-0.028047,-0.15546,0.15062,-0.35949,-0.28309,0.38005,0.78823,-0.33407,-0.7167,-1.4564,0.68625,1.7831,-0.027962,-0.99724,-1.0482,0.22709,1.426,1.1454,-0.3341,0.074057,-0.33398,-0.33407,-1.0483,-0.079008,0.30358,0.17609,-0.079008,-0.078959,-0.25746,0.27808,-0.13001,-0.48706,0.53314,0.074013,0.099552,-0.12995,0.15059,0.43118,0.12509,0.32913,-0.92072,-0.05347,0.68619,-0.33407,-0.86974,-0.43609,-0.46159,0.32912,0.73728,1.528,0.17608,-1.0737,-0.38506,0.25262,0.15059,-1.1248,-1.4309,0.20162,0.68622,-0.10452,0.074044,1.0943,1.3749,-0.35957,-0.92074,-0.89522,-0.053482,-0.053513,0.17609,0.38018,-0.66551,-0.28298,0.15052,0.25257,-0.43606,-0.078972,1.0432,0.35457,-0.25759,-0.35952,-0.66556,0.048555,0.66075,0.35461,0.2016,-0.48711,-0.94625,0.35469,-0.35964,0.55864,0.32912,0.27815,0.71179,-0.43606,-0.79315,0.023059,0.17604,-0.18105,-0.28304,-0.18103,0.53316,0.40566,0.048531,0.023041,-0.1045,-0.35951,0.125,-0.28305,-0.12999,-0.10447,0.023047,-0.25746,0.35456,-0.053531,0.023029,-0.10447,0.15066,-0.43612,-0.20653,1.2729,0.40566,-0.30855,-0.41057,0.04858,-1.0738,-0.86974,0.20158,0.71175,0.83928,0.89031,0.32912,-0.13004,-0.41058,-1.0993,-0.41058,-0.078972,0.04858,0.25265,0.48216,0.53314,-0.13005,0.30357,0.58418,-0.33402,-1.9154,-0.66561,0.50773,1.2218,0.099564,0.074013,-0.5381,0.45664,0.50766,0.07402,-0.97172,0.17614,-0.027889,0.074069,-0.028078,-0.35963,-0.28302,-0.23193,0.40564,-0.053482,0.43117,0.048525,-0.079021,0.17607,-0.94624,0.074051,0.66072,0.40568,-0.20652,-0.23205,0.074051,-0.15549,0.48214,0.074013,0.15058,-0.23201,-0.30849,-0.15546,-0.13002,-0.28311,-0.28309,0.35464,0.25262,0.17607,-0.078953,-0.18097,0.099559,0.048494,0.1251,0.55872,0.30358,-0.64017,-0.81868,-0.23203,0.32914,0.94131,0.86481,-0.33403,-1.1503,-0.69117,0.38014,0.8648,-0.48713,0.2781,0.6352,0.45666,-0.5126,-0.46159,-0.69113,-0.48708,-0.10444,-0.18109,0.099479,-0.38514,0.2016,0.02317,0.048634,0.55872,0.66068,0.4566,-0.079033,0.25252,0.20155,-0.10444,-0.86959,-0.56354,-0.12998,0.22707,0.023035,-0.33406,-0.4106,-0.33411,0.38016,0.30366,0.81375,-0.46156,-0.283,-0.64018,0.30358,0.53316,1.0434,-0.43604,-0.69121,0.58421,0.023005,0.20158,0.15057,-0.25746,-0.12994,-0.13002,-0.41063,-0.38511,0.074013,-0.027993,0.60969,0.45669,0.35464,-1.0227,-0.1555,0.35467,-0.053451,-0.18103,0.3036,0.38014,0.023054,-0.25748,-0.002479,0.073995,-0.028029,-0.5126,-0.43607,0.17605,0.55874,0.68622,-0.13007,0.20161,-0.15545,-1.0993,0.9158,-0.002461,-0.92078,-0.33406,0.45666,-0.18101,1.2474,0.81378,-0.18101,0.048525,-0.12999,-0.84418,-0.69111,-0.15548,0.40561,0.099473,0.099559,-0.002436,-0.002454,0.20161,-0.51252,-0.84416,0.43104,0.68613,0.22707,0.20164,0.86476,-0.51258,-1.2522,0.60969,0.83922,0.30358,-0.86972,-1.4053,-0.69115,0.45669,1.2474,1.3239,-0.2065,-0.64011,-0.53812,-0.13002,0.099534,0.12504,-0.35956,-0.28303,-0.027956,0.2781,0.68621,0.86476,-0.33405,-0.7167,-0.48711,-0.23203,0.022998,0.32918,0.30361,0.048525,0.048518,0.27808,-0.43596,0.12508,-0.0535,0.048531,0.22704,0.15052,0.40562,0.48216,0.20161,-0.28302,-0.30852,-0.43603,-0.9462,-0.5381,-0.46163,0.91578,0.43114,1.1454,-0.078972,-0.4616,-0.56364,-0.18103,-0.027962,-0.20653,0.20158,0.50768,0.2781,-0.002467,-0.053458,-0.20652,-0.51262,-0.002448,0.3036,-0.28305,-0.28303,-0.027956,0.099588,0.50764,-0.38511,0.2271,0.30367,0.20159,-0.30857,-0.15553,0.048543,0.099552,0.17603,-0.30858,-0.25753,0.63521,0.94134,0.02309,-0.64012,-1.0993,-0.28305,0.048543,0.81378,0.71173,0.25261,-0.71666,-0.64015,-0.46162,-0.13001,0.6607,0.58419,-0.10449,0.15052,-0.027993,-0.53807,-0.81857,0.38019,0.60969,0.048531,-0.46161,-0.2831,0.09954,0.83925,0.35462,0.43117,-0.23205,-0.20653,-0.30855,-0.2575,-0.05347,-0.35949,-0.25748,0.7117,0.43113,0.4311,-0.7677,-0.12997,0.45667,0.074062,-0.8442,-0.76768,-0.23206,0.99227,0.78824,0.48217,0.15058,0.074087,-0.64011,-0.15554,-0.28303,0.074081,-0.18098,-0.15555,0.6352,0.60973,-0.10447,-0.56363,-0.38515,-0.10447,0.32914,0.023023,0.12504,-0.027993,0.048543,0.12516,0.30368,0.099515,-0.28308,-0.2065,-0.002485,-0.23203,-0.28298,0.83922,0.27809,-0.13002,0.15053,-0.25754,0.099583,-0.41056,-0.33401,-0.33405,0.48219,-0.053495,0.38015,-0.25752,-0.30856,0.099564,0.12508,-0.33404,-0.079014,0.048531,0.20159,-0.002467,-0.64015,0.25262,0.32917,0.17609,0.023017,-0.35954,-0.027969,0.60961,0.38008,0.023065,-0.30847,-0.25746,-0.0535,-0.10454,-0.15556,0.6607,0.20157,-0.48711,-0.76764,0.12507,0.45667,-1.3798,0.12509,1.6045,1.4515,-0.92073,-1.0228,-0.71671,0.83925,0.45668,0.38014,-0.33408,-0.181,-0.28301,-0.15553,0.17609,0.17606,0.15059,-0.43603,-0.2065,0.35464,-0.15558,-0.002491,0.074038,0.45666,0.40569,-0.00243,-0.35962,-0.053549,-0.20654,-0.20647,0.30366,0.53317,-0.28304,-0.20652,-0.48709,-0.15543,-0.05339,0.35462,0.099497,1.6809,0.43112,-0.79317,-1.3033,-0.69117,-1.1758,0.35464,0.50765,0.81379,0.91578,0.6097,-0.64017,-0.30853,-0.46157,0.048567,0.12507,0.12509,0.48219,0.43115,-0.71669,0.22708,-0.20652,-0.027962,-0.51261,-0.18106,-0.53806,-0.46153,0.25255,0.32905,0.20155,0.099608,0.48218,0.048604,0.20166,0.71168,-0.43613,-0.48706,0.074026,0.17605,0.38014,-0.25751,-0.56361,-0.76768,0.91584,-0.23198,-0.94626,-0.58917,0.27811,-0.61468,1.9871,1.2219,0.45668,-0.25754,-0.46159,-0.4871,-0.51262,-0.48709,-0.20652,0.074051,0.048536,0.099521,0.22707,0.099588,0.20159,0.048585,-0.23193,-0.84413,-0.053506,0.43108,0.76268,0.35453,0.2015,-0.20647,-0.002412,-0.12996,-0.385,-0.46155,-0.18097,0.17606,0.20157,0.73723,0.048518,0.15059,-0.28299,-0.43608,-0.35961,0.20157,0.43114,-0.3086,-0.078996,0.074044,0.6352,-0.10447,-0.00243,-0.35955,-0.35958,0.17606,0.099559,0.12509,0.27812,0.15056,-0.027969,0.27806,-0.1555,0.43126,-0.64005,-0.69117,-0.20658,0.35458,0.1251,0.5331,0.35467,0.20156,-0.3086,-0.35956,-0.28297,-0.12995,0.22713,0.27814,0.30361,0.074044,-0.30858,-0.89524,-0.002503,1.1709,0.15058,-0.69118,-0.4871,0.60969,0.30362,-0.71669,0.50768,0.40569,0.074069,-0.078984,-0.84414,0.15057,0.32909,0.074013,0.048531,-0.10455,-0.28309,-0.43606,-0.28294,-0.28295,-0.002479,0.4056,0.71161,0.43112,-0.18108,0.58421,-0.23198,-0.027901,-0.33404,-0.181,-0.053482,-0.4871,-0.15553,0.32908,0.12501,0.3291,0.30361,-0.41054,-0.33405,0.27817,0.20161,0.099577,-0.079021,-0.15553,0.50767,-0.027993,-0.33407,-0.46157,0.12509,-0.74216,0.048573,-0.28303,0.78823,0.048531,0.38017,0.25257,-0.25757,-0.18097,0.023078,0.048536,-0.33409,-0.58916,0.15056,0.6352,-0.35959,0.68622,0.38021,-0.2065,-0.43612,-0.28306,-0.20652,-0.25754,0.71176,0.58419,0.023017,-0.8442,-0.51256,-0.053495,0.048506,0.32914,0.25263,-0.027969,0.022986,-0.078996,0.71173,-0.48707,-0.64011,-0.43609,0.17604,0.22707,0.2526,0.023047,0.40561,0.048518,0.30359,-0.30846,-0.23197,-0.181,-0.12999,-0.20655,0.074038,0.73717,0.20155,-0.41053,-0.76759,0.099497,0.17604,0.53315,0.2781,0.048543,0.35469,0.12509,-0.38513,0.12506,0.45667,0.40563,-1.2778,-0.9717,0.43121,0.58423,0.048561,0.30363,-0.97179,0.48213,0.40561,-0.002503,-0.027969,-0.33405,-0.30855,0.099552,-0.1555,-0.10448,0.22709,0.30363,0.38016,0.35462,0.023023,-0.58911,-0.69107,-0.92067,-0.28305,0.12508,0.48211,0.63511,0.43109,0.1761,0.074062,-0.002485,-0.23202,-0.6401,-0.078966,0.76278,-0.89527,-0.48709,0.38014,0.60969,0.48219,-0.35953,-0.30856,-0.66566,0.074087,0.38012,0.15053,0.099546,0.20158,-0.002461,0.27812,0.074062,-0.25751,-0.10449,-0.43609,-0.53808,-0.30855,-0.28303,0.30355,0.76264,0.43113,-0.38505,-0.436,-0.23194,0.15056,0.22705,0.25257,-0.12995,0.50768,-0.20655,-0.6911,0.20158,0.48217,-0.71658,-0.51261,-0.25754,0.17609,0.3036,0.55864,0.12507,-0.71668,-0.053458,0.17609,-0.30854,-0.33406,-0.027962,0.89031,0.73725,0.2526,-0.002467,-0.48713,-0.79315,-0.30854,-0.28305,0.2526,0.09954,-0.18105,-0.10452,0.12505,0.45666,0.48223,0.099577,-0.41053,-0.58907,-0.81861,-0.1299,0.30351,0.25249,0.38005,0.3291,-0.12996,-0.12994,0.50761,0.35458,-0.58901,-0.10445,0.60971,0.17606,0.17605,-0.30857,-0.18105,-0.66564,-0.28302,0.40572,0.023065,-0.51263,-0.33407,1.0179,-0.078996,-0.48714,-1.2778,0.099546,0.48217,0.78827,1.3495,0.63522,0.55867,-0.18103,-0.84424,-0.69114,-0.15551,-0.13001,-0.078959,0.20156,-0.25751,-0.56346,0.38012,0.43107,0.27803,0.83923,0.12512,-0.53805,-0.92065,-0.58912,0.17606,0.48214,0.66067,0.023041,0.17608,0.023023,-0.079008,0.048592,-0.51261,-0.078953,-0.41054,-0.15551,-0.3341,-0.027998,0.6097,1.2984,0.25261,-0.69114,-0.43608,-0.053488,-0.25754,0.30364,0.48218,-0.027993,0.074051,0.12504,-0.23204,-0.28302,0.048531,-0.027993,-0.38509,-0.33408,-0.64011,-0.18094,0.48219,0.43119,0.22705,0.58413,0.12505,-0.30855,0.0741,-0.002472,-0.33408,-0.10448,-0.02795,0.58416,0.40566,0.4822,-0.71664,-0.64013,-0.51263,-0.38508,0.12506,-0.38506,0.40564,0.38012,0.17607,0.22713,0.73726,0.22712,-0.35954,-0.23205,-0.2321,-0.38513,-0.23206,0.32917,-0.002436,0.023084,0.048536,-0.41058,-0.5126,-0.20653,-0.027993,0.32913,0.15063,0.43117,0.20156,0.048536,-0.078959,0.099583,-0.38505,-0.38504,-0.41055,0.20155,0.8392,0.25256,-0.027956,0.3292,-0.13004,-0.81871,-0.79317,-0.053402,0.60971,0.73725,0.38011,-0.18102,-0.41058,-0.20655,-0.35959,-0.28302,-0.41047,-0.28303,0.099559,-0.1045,0.55862,0.9923,0.27811,-0.053488,-0.53811,-0.48707,-0.12996,0.22712,0.25263,-0.1045,-0.28305,0.35464,-0.10449,0.40558,-0.15553,-0.12997,-0.18097,0.20159,-0.76769,-0.10451,0.50763,0.40565,-0.18098,-0.25751,0.35465,0.66077,-0.43613,-1.0993,-1.2523,0.38011,0.78825,1.0433,1.6046,0.048592,-0.71668,-0.94626,-0.43608,-0.41062,0.27812,0.58421,0.32914,-0.13001,-0.18106,0.048543,-0.28305,-0.92071,-0.1554,0.86483,-0.30856,0.53321,0.83922,-0.028011,-0.56363,-0.23207,-0.027962,0.2526,-0.33404,-0.027969,-0.002467,0.20157,0.17611,0.09957,-0.23195,-0.10447,0.15056,-0.25757,-0.56364,-0.30858,0.53318,0.20161,0.60972,0.58419,0.12507,-0.56361,-0.38508,-0.51258,-0.12999,-0.35961,-0.181,0.5842,0.83925,0.40565,-0.079008,-0.079008,-0.25753,-0.15551,0.12509,-0.18103,-0.46154,-0.18098,0.35458,0.15057,0.2526,0.12507,-0.25753,-0.053495,-0.10447,0.048525,-0.25749,0.099552,0.27807,0.22709,0.074057,-0.002461,0.15061,-0.43604,0.048573,-0.053495,-0.46162,0.76275,-0.25756,-0.35957,-0.43609,0.50771,0.04858,-0.10449,-0.027969,0.3036,0.35461,0.20155,0.71173,0.023072,-0.027987,-0.43608,-0.23207,-0.41059,-0.41058,-0.002423,0.099546,0.30356,0.63516,0.15062,-0.002418,-0.15552,0.074051,-0.053458,-0.027993,-0.15554,0.6352,0.91579,-0.05347,-0.69113,-0.13002,-0.53812,0.04858,0.09957,0.25265,0.35461,-0.56367,0.099559,-0.079002,-0.20654,0.40568,0.83931,0.1506,-0.23207,-0.10453,-0.028005,-0.002461,0.32918,-0.027913,0.023065,-0.20656,-0.053549,-0.20657,-0.15551,-0.74213,-0.33402,0.45665,0.22711,0.15058,-0.10441,0.40564,0.27809,-0.10456,-0.10449,-0.58911,-0.2066,0.35461,0.30364,0.023114,-0.15545,0.45664,-0.25751,-0.002497,-0.41061,-0.43611,0.023041,0.7117,0.73726,-0.51261,-0.002454,-0.66565,-0.38507,-0.027974,0.63528,0.023054,0.023029,0.30364,0.074002,0.1505,0.15055,-0.053482,-0.053476,0.099583,-0.38506,-0.7932,-0.71661,-0.20653,0.25256,0.43115,0.023212,0.17614,0.40561,0.32907,0.073953,-0.079057,0.15056,-0.58903,-0.7675,0.1761,0.83917,0.43108,0.32909,-0.79315,-1.1758,-0.28303,0.22711,-0.002461,-0.64018,0.30362,0.17611,0.63524,0.4567,-0.43605,-0.71663,0.55875,0.22709,-0.2321,0.023017,0.63518,0.22708,-0.053476,-0.33405,-0.5381,-1.1503,-0.078972,0.35465,0.53312,0.12504,0.25257,0.38012,-0.23196,-0.18094,0.07402,0.07402,-0.48706,-0.41058,0.2781,-0.10454,0.68616,0.86471,-0.33391,-0.3595,0.17612,-0.4616,-0.02798,0.22708,0.22707,-0.48713,0.09951,0.68623,0.023054,-0.58909,-1.0228,0.12509,0.48222,0.15056,0.099503,0.76275,-0.002461,-0.13001,0.17612,0.17606,-0.46161,-0.79317,-0.38502,-0.053476,0.53314,0.27808,0.3291,0.023072,-0.002461,-0.181,-0.71654,-0.12996,0.27806,0.38003,0.227,0.25259,0.55869,0.43115,-0.002479,-0.56361,0.023084,-0.53807,-0.20648,-0.078935,-0.053464,-0.35952,0.048543,0.4311,-0.053513,-0.53814,-0.74223,0.68622,0.78829,0.43113,-0.10453,0.32913,0.074075,0.099588,-0.15549,0.35465,-0.64014,-0.41061,-0.51263,-0.23204,0.048604,0.023059,0.7627,0.35464,-0.02798,-0.64012,0.048525,0.048518,-0.053476,0.12507,0.099552,0.32908,0.099601,0.074026,-0.23199,0.023035,-0.12998,-0.53798,0.099583,0.22705,0.63516,0.60966,-0.30863,-0.86972,0.45667,-0.15551,-0.18097,-0.86967,0.9923,1.1964,0.53317,-0.53811,-0.41063,0.15057,0.074075,-0.027962,-0.30851,-0.43607,-0.25756,-0.079021,0.32913,0.25261,0.30358,0.55866,0.20163,-0.43603,-0.51258,-0.58913,-0.5891,-0.20645,0.4821,0.60962,0.60968,0.68621,0.074033,0.1506,-0.28303,-0.53809,-0.64008,-0.23205,0.02301,-0.12997,0.023059,0.66069,0.32915,0.099534,-0.23206,-0.28303,-0.25753,-0.71671,0.76278,0.27811,0.048536,0.30366,0.6863,0.099601,-0.58914,-0.84424,-0.10452,0.45669,-0.23203,0.12506,0.099528,0.25258,-0.18103,-0.64015,-0.15546,-0.10443,-0.41046,0.43108,0.30349,0.43108,0.22709,0.25264,0.32917,-0.20652,-0.5381,-0.48715,-0.64006,0.074106,0.83925,1.5024,0.7117,-0.79324,-0.71665,-1.3033,0.25259,0.2781,-0.48708,0.20156,1.9361,0.023023,-1.7114,-1.4308,0.45669,1.1708,1.0433,-0.027962,-0.48707,-0.53812,0.25257,-0.23197,0.38013,-0.20661,-0.079081,0.27806,-0.053409,-0.84404,-0.079045,0.4311,0.30359,-0.43602,-0.5126,0.81373,0.48211,0.22718,-0.69099,-0.23202,-0.53812,0.96679,-0.43621,0.20152,-0.28305,-0.078972,-0.28306,0.76278,0.45675,-0.33404,0.32913,0.27809,-0.15553,-0.35961,-0.078984
-0.002479,-0.28303,-0.20652,-0.002467,0.074051,-0.027962,0.2526,0.27809,0.15054,-0.027998,0.12503,-0.18101,-0.35954,-0.23201,-0.002461,-0.053458,0.17609,0.43112,0.15056,0.074038,0.023023,-0.18102,-0.18099,-0.12999,-0.053482,-0.027944,0.099577,0.3036,-0.079014,-0.079002,0.12504,0.02301,-0.28305,-0.12998,-0.18101,0.099583,0.27813,0.40563,0.15057,-0.053464,-0.002485,-0.05347,-0.30853,-0.10449,-0.25751,-0.41056,0.20159,0.45667,0.58417,-0.027974,-0.0535,-0.079008,-0.33404,-0.027969,0.2526,0.04858,-0.23204,-0.079014,0.1761,-0.002454,0.099564,0.12508,-0.13,-0.002454,0.048536,0.074044,-0.002467,0.09957,0.099559,-0.027993,-0.02798,-0.20652,-0.13,0.074062,0.074081,0.048567,-0.027962,0.12505,0.099546,-0.053495,-0.10451,-0.30854,-0.12999,-0.027969,-0.1045,0.023047,0.048567,0.30362,0.15054,-0.002485,-0.002472,0.074051,-0.05347,-0.002436,-0.13,-0.10449,0.048549,0.15058,0.17606,-0.078977,-0.25752,-0.20651,-0.15551,-0.053451,0.22711,0.12505,0.20159,0.20157,0.15056,-0.181,-0.13,-0.053476,-0.20651,-0.002479,0.048555,0.17609,0.17607,0.074069,0.074044,0.074033,-0.079008,-0.1045,-0.078984,-0.078996,-0.10448,-0.12998,-0.002448,0.30361,0.17607,-0.1045,0.023054,0.12508,-0.053476,-0.25754,-0.28303,-0.002454,0.3036,0.17605,0.15056,0.40563,0.074033,-0.13,-0.38508,-0.30856,0.048561,0.20162,0.023065,0.074051,0.17606,0.09954,0.048543,-0.027969,-0.18102,-0.18101,0.023059,-0.00243,0.20159,0.3291,0.17607,-0.053476,-0.027998,-0.15551,-0.1045,-0.02798,-0.002443,0.048567,0.048536,0.17607,0.048555,0.099534,-0.02798,-0.10448,-0.13002,-0.28304,-0.053476,0.12508,0.20161,0.30363,0.099546,-0.1045,-0.027969,0.023035,-0.1555,-0.20649,-0.078977,0.023047,0.12507,0.40563,0.12504,-0.23205,-0.30856,-0.02798,-0.027969,-0.181,0.074081,0.048567,0.074062,0.023054,0.12505,0.17606,-0.053476,-0.20652,-0.23202,-0.12998,0.04858,-0.027956,-0.027969,0.023047,0.023029,0.023029,0.25257,0.048525,-0.38506,-0.28303,-0.13,0.04858,0.12509,0.45664,0.25258,0.048555,0.023041,-0.079008,-0.30855,-0.30855,-0.078972,0.22711,0.15059,-0.027938,0.20157,-0.13002,0.048543,-0.078984,-0.30852,-0.28303,0.048543,0.023047,0.023047,0.30361,0.2781,0.099559,-0.23202,-0.002467,-0.23201,-0.18102,0.023047,-0.12998,0.099577,0.27811,0.38011,-0.002491,-0.20652,-0.28303,-0.33405,0.38014,0.35465,-0.12998,-0.002472,0.048543,-0.027993,-0.13001,-0.078977,-0.23202,-0.23204,-0.15548,0.023059,0.12507,0.2271,0.32913,0.17606,-0.053495,0.048555,0.048549,-0.002485,-0.1555,-0.05347,-0.027969,-0.1555,0.023059,0.12505,-0.1045,-0.002467,-0.07899,-0.23203,-0.053439,0.099564,0.17607,0.27811,0.25259,0.17604,0.023035,-0.053495,-0.053488,-0.2065,-0.12999,-0.10448,-0.10447,0.30362,0.074069,0.38014,0.023035,-0.10449,-0.33404,-0.28305,-0.13001,0.023054,0.17609,0.15058,0.023041,0.15057,-0.027987,-0.13001,-0.078972,-0.10449,0.023041,-0.053458,0.099577,0.20158,0.15057,-0.027969,-0.002491,-0.13002,-0.12998,-0.078972,-0.15548,-0.078977,0.074044,0.074057,0.20158,0.27806,0.099552,0.074038,-0.002485,-0.23202,-0.23202,-0.12997,-0.10445,0.023059,0.074044,0.074044,-0.053506,0.12503,-0.078996,-0.12999,0.15058,0.22708,0.09957,0.15059,0.099559,-0.181,-0.12999,-0.10452,0.023047,-0.33404,-0.20652,0.048549,0.074062,0.12509,0.35464,0.3291,0.023017,-0.13002,-0.18103,-0.1555,0.1251,-0.15548,-0.12998,0.099546,0.2526,0.074051,-0.12999,-0.1045,-0.027969,-0.181,-0.07899,0.023035,-0.25753,0.12506,0.38013,0.17607,-0.002472,-0.02798,0.074062,-0.28301,0.023047,-0.20651,-0.23204,0.048531,0.48216,0.099564,0.17607,0.099552,-0.053488,-0.38506,-0.078966,0.2271,0.048543,0.023041,0.099577,0.099564,-0.07899,-0.053488,-0.25756,-0.33407,-0.13001,0.048573,0.30366,0.40565,0.30361,-0.053476,0.074013,-0.079014,-0.13,-0.053476,0.20159,-0.30854,-0.28302,-0.02798,0.22708,0.20159,-0.053513,0.30361,0.43116,-0.078972,-0.51262,-0.23204,-0.02795,-0.41058,0.17609,0.86478,0.55869,0.023017,-0.64017,0.023035,-0.002461,-0.25751,-0.053464,-0.15545,0.074069,0.25256,0.3291,-0.13005,-0.10453,-0.23201,0.40567,-0.53814,-0.41058,0.17608,0.63523,0.048561,-0.1555,-0.002485,-0.35956,-0.58913,0.17609,0.12505,0.35465,0.074057,-0.002485,-0.61467,-0.53814,0.83928,1.0689,-0.2575,-0.69117,0.1506,0.15059,0.048518,-0.79321,0.12508,-0.13001,0.22707,0.63519,-0.28306,-0.33404,0.22713,-0.30856,-1.0228,0.43121,0.12509,1.0688,0.68625,0.099601,-0.56363,-0.71665,-0.69114,0.023035,0.50766,0.50763,0.45666,-0.94622,-0.61467,-0.38504,-0.12998,0.074062,0.68622,0.27808,0.5332,0.1232,0.22521,0.25071,0.73723,0.66075,-0.28304,0.12508,-0.84419,-1.7879,-1.0483,-0.61468,1.4259,0.71171,1.681,0.78824,-0.53807,-1.4309,-0.84417,-0.46161,-0.18106,-0.20657,0.43112,0.63523,0.68622,0.60971,-0.15545,-0.053446,0.074069,-0.74211,-0.71663,-0.00251,0.022992,0.63518,0.38008,0.38009,-0.89522,0.25262,0.53326,-0.002423,0.53319,-0.84423,-0.028029,0.22709,-0.53815,-1.0737,0.9414,0.20157,-1.1504,-1.3543,-0.02798,1.7575,0.7117,0.83925,0.60973,0.53318,0.40568,0.3802,-0.53813,-1.2778,-1.5074,-0.002436,0.58422,-1.2778,0.3801,0.35457,1.0178,0.20157,-0.002479,-0.6656,-0.64014,-0.23201,-0.48713,-0.25755,1.1708,0.63518,0.40561,0.023078,-0.56358,0.25268,-0.20644,-0.69119,0.073977,0.71168,0.15056,-0.23194,0.048543,-0.94606,-0.23196,0.073935,0.15045,0.073965,0.89026,-0.079002,0.20164,0.48219,0.15059,-0.5126,-1.2268,-0.71665,-0.027969,-0.00243,0.60973,0.96681,0.9413,0.2271,0.2271,0.1761,-1.3289,-0.89524,-0.18101,-0.30856,0.25263,0.32914,0.40561,-0.002467,0.15057,0.17606,-0.46156,-0.5891,0.099613,0.40565,0.48208,0.25256,-0.002467,0.20153,-0.48696,-0.002405,-0.30856,-0.25759,-0.20656,-0.002497,0.53318,-0.02798,1.2984,0.22715,-1.0738,-1.3544,-0.86971,0.023078,0.9668,1.1454,0.76275,0.2781,0.32912,-0.79322,0.023072,-0.078984,-0.13002,-0.66564,-0.18101,-0.48714,0.43115,-0.30859,0.68618,0.81386,-0.18097,-0.25752,-0.56366,0.17603,0.12508,-0.10448,-0.13001,-0.23199,-0.41056,-0.10445,0.25266,0.2525,0.53317,0.15054,0.50767,0.074124,-0.4871,-0.69112,0.66072,0.27808,-0.027974,-0.94623,-0.46161,-1.6349,0.91585,0.35463,1.0944,-0.15551,0.81384,0.048585,0.38011,-0.23212,-0.56368,-0.35959,-0.13002,-0.46162,0.022992,-0.30853,1.0179,0.45672,0.25266,0.1506,-0.41058,0.63522,0.12501,-0.71674,-0.4871,-0.35953,0.048561,-0.15549,0.22707,-0.18098,-0.61457,0.5587,1.1454,0.78816,-0.28305,-0.38497,0.27806,0.2526,-0.53815,-0.79325,-0.66569,-0.64013,1.2219,0.48223,0.32912,-1.1503,-0.81874,0.94134,1.426,-0.35956,-0.15551,-0.58914,-0.078947,-0.66567,0.40566,0.25261,0.78827,-0.027969,0.17604,-0.15554,-0.28308,-0.10449,-0.13005,0.073989,-0.61455,-0.56357,-0.25751,0.55876,0.48216,0.91568,0.50759,-0.002485,-0.38508,0.27805,0.023029,-0.53808,-0.33402,0.9413,0.68627,0.099626,-1.6604,-2.094,0.35462,0.94127,1.2474,0.35464,-0.028018,-1.0483,0.20159,-0.41062,0.27813,0.48223,0.60971,0.43115,-0.30851,-0.12999,-0.028036,-0.99729,-0.8442,0.63524,0.30369,-0.078947,0.023023,0.099491,0.38006,0.099588,0.048573,-0.078959,-0.15543,0.074062,-0.25756,-0.079051,-0.053488,0.074044,-0.10446,-0.23204,0.20167,0.48216,-0.23203,0.4056,-0.41059,-0.30854,-0.20654,0.12502,-0.053458,-1.0738,0.27809,0.76279,0.58422,0.76277,-0.283,0.68627,-0.51262,-0.002472,-0.18101,-0.30859,0.2526,-0.23203,-0.28307,-0.46161,-0.078984,-0.12996,-0.30851,0.074013,0.68615,0.5076,0.15062,-0.20637,0.20165,0.22702,-0.35949,0.07402,0.32903,0.022986,-0.10452,-0.15551,0.12508,-0.64014,-0.283,0.12514,0.58427,-0.76765,-1.2268,-0.56362,1.2474,-0.33409,1.2984,1.2984,-0.15554,-0.74218,-0.053458,-0.35954,0.099564,-0.43613,0.3291,-0.002461,-0.002454,-0.15548,-0.28302,0.38016,0.048549,0.048531,-0.0535,-0.53809,0.17609,-0.2575,0.45666,0.45665,0.12504,0.38014,-0.027969,-0.86973,-0.18101,0.40568,0.32916,0.40568,-0.28305,-0.25754,0.22711,-0.89524,-0.43607,0.43117,-0.079008,0.53317,0.12508,-0.86971,-0.079014,0.6607,0.68623,0.38016,0.048567,-0.56356,-0.35958,-0.56367,0.38013,0.60968,0.48214,0.17604,-0.43606,-0.94619,-0.56355,0.12504,0.43115,0.45667,0.074062,-0.41062,-0.00251,-0.23198,-0.10447,0.20163,0.27811,-0.30857,0.074051,-0.05347,-0.43612,0.048543,0.73726,0.20154,0.074069,0.074111,-0.66561,-0.66569,-0.56365,1.1963,1.1709,-0.43609,0.099608,0.35464,-0.48716,-0.078984,-0.5381,-0.51263,-0.61465,-0.20649,0.20158,0.68622,1.0689,0.45666,0.50765,-0.28308,-0.74218,-0.76763,-0.41056,0.55864,0.27812,-0.053458,0.074075,0.2781,0.15056,-0.38506,-0.078996,-0.2065,-0.48711,0.20153,0.27806,0.38018,0.81376,0.68624,-1.2013,-0.81866,-0.15551,-0.64018,0.8648,1.0433,1.3749,-0.30852,-0.8952,-0.6657,0.58419,-0.002443,-0.38508,-0.28305,-0.10447,-0.13001,0.20155,-0.18103,0.73728,0.5587,0.099528,-0.02798,-0.002491,-1.2012,-0.64005,-0.63998,0.66061,0.91565,0.76263,-0.41052,0.27816,0.73723,0.15054,-0.30856,-0.81876,0.22713,0.4567,-1.4564,-0.1045,-0.53814,0.074057,0.35464,0.40568,0.55877,-0.5891,0.17609,0.12505,-0.20653,0.38011,-0.07899,-0.053488,0.38015,-0.7677,-0.97171,0.22715,0.20155,0.68617,0.25257,0.15057,-0.002461,-0.1045,-0.38505,-0.20651,-0.38503,-0.20649,-0.30839,0.048561,0.5841,0.86467,0.55862,-0.002497,-0.12998,-0.10449,-0.48708,-0.76766,0.023072,0.4057,-0.078972,-0.25754,0.32912,0.023078,-0.4106,-0.38507,0.20163,0.12506,0.15054,0.45664,0.91578,-0.078977,-0.66561,-0.20657,0.20159,0.15055,-0.002472,0.022998,-0.33402,-0.078941,0.50769,-0.10449,0.048518,-0.027969,-0.30861,-0.33406,-0.56357,-0.002454,0.53315,0.099564,0.12509,0.45665,-0.30854,-0.12996,-0.053402,-0.30855,0.45662,0.63517,-0.79325,-1.0738,0.32918,0.6097,0.38013,-0.12998,0.50768,0.4822,-0.181,-0.4871,-0.30852,-0.053549,0.8137,0.96683,-0.35952,-1.0482,0.074093,-0.20653,-0.58921,-0.20658,0.30364,0.43121,0.91578,0.81372,-0.53809,-0.23198,-0.76762,-0.51258,-0.2321,0.73723,0.02317,0.2526,0.27802,0.25255,0.17603,-0.38505,-0.48711,-0.02798,0.43118,0.30361,0.40561,-1.7624,0.074136,-0.078935,-0.48711,0.35468,-0.002448,-0.35956,0.30364,0.099552,0.32907,0.73723,-0.027969,0.09954,-0.078984,0.1761,-0.20653,-0.64014,-0.23202,-0.078972,-0.94627,-0.35959,0.40563,0.30361,0.38025,0.48219,0.55864,0.27805,-0.10449,-0.283,-0.10447,-0.30849,0.15056,0.38014,0.023017,-0.15551,-0.66565,-0.5381,-0.181,-1.1503,0.73728,-0.18103,0.86477,1.2984,0.5842,-0.61467,-0.97171,-0.28301,-0.1045,0.7372,0.17606,0.40566,0.22712,-0.0535,-0.28303,-0.66561,-0.74214,-0.28298,-0.28308,0.099546,1.0688,-0.10456,-0.33408,0.22711,0.30376,0.40576,0.15055,0.048482,-0.30853,0.25254,-0.25748,-0.027931,0.12502,0.35457,0.09954,-0.79316,-0.79321,0.22709,0.22715,-0.51257,-0.30852,1.1453,-0.92076,0.17609,1.1709,0.099552,-0.56359,-0.078928,-0.15552,0.12505,0.15058,0.48214,0.50764,-0.13002,-0.13005,-0.97177,-0.20652,0.22717,-0.10448,-0.15552,-0.053446,-0.053446,-0.15548,0.09957,0.27811,0.35456,0.58412,0.40562,-0.1045,-0.15544,-0.12998,-0.76771,-0.41065,0.30354,0.73727,0.35466,-0.13,-1.3798,-0.20647,0.04861,-0.69111,0.048549,0.76276,0.12504,0.58416,-0.3341,0.048531,-0.053476,-0.38504,-0.23203,0.73723,0.25259,0.30359,-0.23207,-0.15551,0.20161,0.20158,-0.74209,-0.9717,-0.6911,-0.002467,0.53314,0.71165,0.76268,0.50766,0.30365,-0.71655,-0.23197,-0.13002,0.53318,0.22705,-0.1045,-0.48714,0.3801,-0.10449,0.099632,0.32914,0.22713,-0.66564,-0.1045,-0.10449,-0.027974,-0.13004,-0.0535,0.60971,0.074062,0.30363,0.40566,0.81377,-0.97174,-1.3288,-0.18106,0.53314,0.81376,0.91588,-0.10447,-0.028072,-0.61461,-0.69112,-0.23209,0.02301,0.32915,0.5587,0.50763,-0.20649,0.074038,-0.10446,-0.41049,-0.35954,-0.33407,0.45664,0.32908,0.15054,0.63521,-0.078972,0.099601,0.32914,-0.48712,-0.84422,-0.25753,-0.053476,0.17611,0.12507,0.99232,0.58422,-0.05347,-1.1503,-0.33408,-0.30855,-0.053421,-0.23198,0.58409,0.25256,0.55867,0.45664,0.55861,-0.002485,-0.79312,-1.0226,-0.46147,0.3801,0.78818,0.099479,0.68617,0.40567,-0.10444,-1.0483,-0.92074,-0.35954,0.91584,0.023035,-0.51264,0.32914,0.94135,0.17609,-0.23204,0.048518,-0.23205,-0.25755,-0.25753,0.40563,0.73721,0.2526,-0.46157,-0.12995,0.2526,-0.3851,-0.35958,-0.33399,-0.283,-0.25749,-0.58908,-0.18106,0.63511,0.78818,-0.028005,0.32917,0.50767,0.40569,-0.43606,0.048598,-0.18098,-0.25759,-0.94625,-0.30853,-0.28309,1.3239,0.66075,-0.48705,-0.53809,0.25257,-0.13007,-0.10457,-0.002467,-0.51254,0.099632,0.40564,0.5842,1.1964,-0.69118,-1.2779,-0.53817,0.50765,0.38015,0.099632,-0.23196,0.32914,0.43112,-0.002454,-0.20657,-0.079033,-0.027944,-0.487,0.50763,0.023029,0.099497,0.023029,-0.12999,-0.30854,-0.23208,0.40563,0.48213,0.40568,0.12515,-0.12984,-0.51264,-0.56364,-0.56364,0.53321,-0.23207,-0.48715,-0.25758,1.1199,0.78829,0.63521,-0.15551,-0.18101,-0.10447,-0.66565,-0.3341,0.20155,-0.20649,-0.30841,-0.35947,-0.23204,0.50755,0.38005,-0.002528,-0.20655,0.76284,0.22709,-0.18103,0.45663,0.048567,-0.23196,-0.30854,-0.181,-0.89517,-1.0482,0.40561,1.2728,0.25257,-0.20653,0.53318,-0.1045,-0.64015,-0.69116,0.66075,0.73728,0.40566,-0.48709,-0.79318,-0.20656,0.32912,0.12508,0.4056,-0.6657,-0.38506,-0.35959,-0.33408,0.22712,0.71179,0.15067,-0.41052,0.27806,0.22707,0.63517,-0.18108,-0.64012,-0.078966,0.35461,-0.053488,-0.078977,0.71172,0.35464,-0.13002,-0.51262,-1.2013,-1.0992,1.0434,0.76273,0.58416,-0.35964,-0.053525,0.27812,-0.69118,0.50771,1.0689,-0.46156,-0.46155,-0.7166,-0.41061,0.02301,0.60968,0.048536,-0.02798,0.0741,-0.10451,-0.027993,-0.64012,-0.30861,-0.12994,0.48226,1.1197,0.5076,0.099485,-0.079033,-0.10449,0.20161,-0.30851,-0.66556,0.023114,1.0943,-0.6912,-1.1758,-0.64015,0.40564,-0.027969,0.023047,0.58417,0.40561,-0.027974,0.63523,0.60971,0.12507,-1.1503,-0.30855,0.074069,-0.078953,-0.46164,0.22704,-0.053495,0.20169,-0.078923,0.12506,0.22711,-0.35955,0.20152,0.20151,0.35454,-0.1045,0.048598,-0.76745,0.17609,0.22707,0.68614,0.12501,-0.35957,-0.25751,0.099521,-0.15553,0.023054,-0.002436,0.83933,-0.002454,-1.4564,-0.94625,0.71173,0.81383,0.81381,-0.0535,-0.30863,0.3291,0.099564,-0.53814,0.45669,0.0741,-0.23204,-0.25755,-0.46158,0.30363,0.30364,0.2016,-0.46167,-0.51257,-0.02792,0.22712,0.099497,-0.48711,-0.64013,1.732,0.66067,0.099577,-0.30853,-0.20656,-0.25756,-0.027998,-0.027974,0.27808,-0.86967,-0.25749,0.12512,-0.00243,0.83925,1.1964,-1.1758,-0.053482,-0.7932,-0.69116,0.048561,-0.79325,1.0688,2.3698,0.94131,-0.79324,-0.64016,-0.56362,-0.7421,-0.41051,0.22709,-0.13008,-0.053531,0.17602,0.81377,0.2781,-0.079014,-0.20646,-0.2575,-0.61457,-0.002479,0.25252,0.5842,0.17604,0.20158,0.02298,-0.81859,-0.28287,-0.35953,-0.23203,0.32904,0.86472,0.30353,0.22703,-0.71671,0.45669,-0.28295,-0.51251,-0.23201,0.20159,-1.2269,0.45669,1.1199,0.68623,0.099521,0.27812,-0.41058,-0.027998,-0.25756,-0.8187,-0.10449,0.27808,0.0741,0.35465,0.12509,0.30358,-0.18105,-0.33405,-0.7166,-0.18097,0.38016,0.4056,0.43109,-0.079045,0.099546,-0.002423,-0.12993,0.023096,-0.25754,-0.10452,-0.30859,-0.027974,0.048543,0.048506,1.0434,-0.027969,0.099595,-0.078947,-0.20652,-0.33405,-0.5636,0.50771,-0.027993,-0.38508,-0.53823,-0.053568,0.15055,0.43117,0.20164,-0.002399,0.48215,-0.027974,-0.20652,0.023023,-0.56361,0.32919,1.0433,-0.002436,-0.28306,-0.58913,-0.69115,-0.33406,0.12503,0.22713,0.17613,0.50765,-0.13003,0.048506,-0.41055,0.023035,0.73728,-0.053464,-0.35962,-1.0993,-0.18106,1.324,1.5025,-0.23201,-0.76769,-0.002454,-1.3544,0.22713,0.40566,-0.002528,0.02301,0.66073,-0.053495,0.04858,0.60975,-0.00243,-0.86971,-0.43612,-0.30864,0.43111,0.20155,-0.61453,-0.58904,0.30364,0.50762,-0.10453,-0.6401,0.68617,0.55864,0.71173,-0.053476,0.94137,0.1506,-0.13002,-0.20652,-1.5329,-0.89521,0.50767,-0.20655,0.023047,0.20155,1.0433,1.6045,0.43121,-1.2523,-0.97174,-0.10449,-0.23205,0.60967,0.12502,0.78825,0.099577,-0.81865,-0.71665,-0.30854,-0.48712,-0.12991,-0.30851,0.86467,0.45659,0.89018,0.58417,-0.20652,-0.46157,-0.58904,-0.58897,-0.33399,0.53319,-0.10452,-0.53818,-0.13001,0.48216,0.023035,0.3802,-0.61463,-0.61464,0.76278,1.3495,-0.53816,-0.56367,0.17605,0.15059,0.20161,0.17609,-0.46158,-0.23199,0.30361,0.73721,0.76268,0.30359,-0.10447,-0.71662,-1.0738,-0.05347,-0.12995,0.15057,0.25256,0.125,-0.15554,0.27812,0.048592,0.023072,0.12505,0.17603,0.07402,-0.43604,-0.61446,-0.20645,-0.002503,0.94125,-0.053586,-0.15556,-0.002467,0.023029,0.35467,-0.12995,-0.23204,0.30366,-1.1248,0.35465,1.2219,0.9413,-0.66565,-0.25754,-0.58915,-0.64018,-0.30854,0.099577,0.15056,0.3291,0.048561,-0.30854,0.35465,0.099552,-0.15556,-0.35956,0.0741,-0.15543,0.25259,0.55863,-0.51258,0.55862,0.45667,-0.58913,-0.30852,-0.61456,-0.56359,-0.66567,0.96678,0.81375,-0.48714,0.1251,0.22714,0.45669,0.023035,-0.61462,-0.35959,-0.23204,0.048512,0.45667,0.45666,-0.41058,0.38023,-0.30852,-0.76769,-0.51265,0.35453,0.12515,0.1506,-0.20647,0.35469,0.53312,-0.078966,-0.41063,0.76264,0.48214,-0.20649,-0.23195,-0.23197,0.099515,-0.66565,-0.002491,0.6352,0.32909,-0.10449,-0.51263,-0.51258,-0.079008,1.0688,-0.002454,0.048543,-1.1757,0.63522,-0.10451,0.099595,0.048549,-0.002467,0.099608,-0.28306,0.20155,0.53317,0.86475,-0.25753,-0.81868,-0.74209,-0.15553,0.023029,0.15051,-0.56359,-0.12996,0.60969,0.68611,0.099552,0.048598,0.12507,-0.46157,-0.05347,-0.10444,-0.027998,0.63518,0.73725,-0.053451,-0.99723,-1.4054,0.099564,1.3495,0.12506,0.71175,-0.92079,-1.6094,0.5842,1.63,0.25264,0.074106,0.048592,-0.078972,-0.9718,-1.0993,0.15052,0.023047,0.58422,0.6352,-0.23203,-0.74216,0.048598,0.023005,0.099577,0.45667,0.20155,-0.078935,0.27811,-0.20657,0.048561,-0.1554,-0.13004,-0.38508,-0.43605,0.074062,0.66064,0.2526,-0.13,0.074013,-0.38509,0.22712,0.22713,-0.58909,-0.13002,0.45666,-1.2778,0.35465,0.12504,1.0944,0.73725,0.099564,-0.33405,-0.4361,-1.0993,0.15057,0.09957,0.1506,0.40558,0.12499,0.125,-0.18104,-0.12994,-0.002394,-0.76755,-0.2065,0.78816,0.22705,0.30358,-0.028018,-0.2065,-0.07899,0.2526,0.25265,0.81383,-0.71663,-0.74217,-0.56364,-0.15553,-0.33404,-0.002461,0.38013,-0.20655,0.15056,0.099588,-0.028011,0.43115,0.22714,0.38014,-0.23203,0.1506,-0.20655,-0.53811,-0.5381,0.20159,0.3801,-0.002497,-0.38509,-0.15543,0.12507,0.074038,0.023047,0.25255,-0.053439,0.074051,-0.078996,0.22707,0.25262,0.17604,0.02301,0.45666,0.074075,-0.94622,-0.86974,0.32913,-0.181,-0.181,-0.66561,0.60976,-0.15549,1.6045,0.96679,-0.23208,-0.97177,-0.61466,-0.027987,0.15054,0.38008,0.074013,-0.027931,0.27811,-0.12998,-0.58908,-0.33409,-0.56355,-0.30841,0.35463,0.32903,0.099515,1.1198,-0.12996,-0.12999,-0.33404,-0.30851,0.074013,0.32907,-0.027974,0.27815,0.023078,-0.15548,0.38014,-0.46164,-0.35956,-0.71665,-1.2013,0.20156,1.3749,1.2729,-0.28308,0.35465,-0.02792,-0.64012,-1.2013,-0.58913,0.2271,0.55869,0.45664,0.66069,0.17607,-0.053544,0.1761,-0.23207,-0.6146,-1.2012,-0.81851,-0.07891,0.76266,0.96666,1.0177,0.30358,-0.35957,-0.28298,-0.38503,-0.15551,-0.38506,0.71168,0.35464,-0.23209,-0.33406,1.0179,-0.35952,-0.30854,-0.43609,0.15058,0.68625,-0.18105,-0.71668,-0.35961,0.7372,0.27812,0.40569,0.15064,0.58421,-0.15553,-0.84425,-0.56367,0.32909,0.89027,-0.20647,-0.48709,-0.46154,0.048555,0.074062,0.20152,0.38004,0.048555,-0.48698,-0.6655,0.25256,0.32906,0.38012,-0.05347,-0.0535,-0.23203,0.43116,0.40563,-0.18101,-0.94622,0.074093,0.60972,-0.10452,-0.20658,0.12509,0.58419,0.48219,0.48218,-0.84423,-0.5892,0.22708,0.12509,0.12514,-0.2065,-0.51265,0.30361,0.63524,0.30358,-0.027974,0.32913,-0.5891,-0.48716,0.12504,0.38013,-0.33392,0.22708,-0.97162,-0.35959,-0.0535,0.30357,0.94123,0.53317,0.40568,-0.25751,-0.7676,0.30366,0.89028,-0.58915,-0.79313,-0.79319,0.3036,1.0943,0.38011,-0.41055,-0.61465,-0.002479,0.023084,-0.64018,0.12504,0.50769,0.60973,0.43115,-0.89521,0.40573,0.50769,-0.15551,-0.25756,0.023047,-0.51262,-0.079045,0.15056,-0.18104,-0.30855,0.40574,0.48216,-0.15557,-0.41055,-0.48703,-0.053421,0.099613,0.58413,0.30355,0.22704,-0.56364,0.25264,-0.61459,-0.43613,0.78825,0.89032,-0.38505,-0.79314,0.20156,0.20163,-0.92073,-0.74218,0.12512,0.50767,0.78823,0.55868,1.1453,0.099546,-0.28303,-0.28303,-0.81871,-1.0228,-0.15548,-0.18105,-0.71667,0.12507,0.63518,0.9413,0.58422,-0.33394,-0.43602,0.048549,0.022992,0.20152,0.35461,-0.13,-0.30855,-0.053476,0.25259,-0.053476,0.15057,-0.35957,0.32915,-0.71665,0.1251,0.30361,1.0688,-0.35959,-1.0483,-0.23202,-0.64012,0.4567,0.55872,0.5842,-0.13005,-0.078984,0.099577,0.63521,0.45666,-0.2321,0.48213,0.17609,-0.56359,-1.1503,-0.79312,0.0741,-0.35952,0.17599,0.71163,0.15057,-0.66551,-0.053427,0.15059,0.099588,0.27803,0.27806,0.32908,0.048506,-0.078977,-0.027938,0.66079,-0.79313,-0.69111,-1.686,-0.38511,0.43112,1.6555,0.78823,0.73725,-0.10446,-0.6911,-1.0482,-0.38506,0.12505,0.27808,0.4566,0.48213,0.43107,-0.25756,0.15064,0.074124,-0.84415,-0.76764,-0.71674,0.27809,0.71177,0.22713,0.20159,0.023029,-0.13,0.023096,0.17609,-0.28302,-0.28305,0.32912,0.78819,0.35453,-0.10453,-0.23204,-0.51258,-0.07899,0.12513,-0.10444,-0.81868,-0.18105,1.1454,0.89036,-0.35957,-0.7167,0.78825,-0.4106,0.63526,-0.51263,-0.38511,0.048512,-0.23201,-0.84415,0.58418,1.3239,0.27805,-0.18102,-1.0482,-1.2012,-0.58914,0.45656,0.55868,0.58424,0.32918,0.63521,0.89029,-0.92053,-0.99723,-0.89528,-0.027987,0.55861,0.22699,0.43113,0.32915,-0.46155,-0.3851,0.71175,0.40568,-0.86964,-1.0227,-0.15553,-0.38509,0.4567,1.1964,0.43112,0.2271,-0.13002,0.099577,0.94133,-0.28306,-0.94626,-0.76772,0.048494,-0.23209,0.38017,0.45672,0.20164,-0.23202,-0.71657,-0.46151,-0.23198,-0.12998,0.78812,0.91565,0.30355,-0.002491,0.25252,0.048531,-0.002436,0.83931,-0.053458,-1.3543,-1.2778,-0.027962,0.40571,0.63529,0.22711,0.048561,-0.4361,0.20156,-0.23209,-0.35961,0.50765,0.17608,-0.38506,0.17608,1.2219,0.074062,-0.46158,-0.43609,-0.079002,-0.053427,0.27812,0.048567,0.38014,0.25261,-0.69111,0.15051,-0.10449,0.048487,-0.18095,0.38007,-0.25763,0.048518,0.17611,0.76274,-0.2575,-0.283,0.023078,0.023103,-0.35956,0.32913,-0.56366,-0.079008,0.20159,0.25262,0.50768,-0.58908,-0.7932,-0.58919,0.12505,-0.51267,0.48218,1.732,0.63523,-0.56363,-0.053464,-0.18101,-0.1555,-0.69111,-0.35953,0.25256,-0.002454,-0.28295,0.35455,0.73715,0.38007,0.048494,-0.079026,-0.8695,-0.46151,-0.027871,-0.12992,0.15049,0.022974,0.94124,0.17605,-0.97175,-0.002443,-0.25754,0.099595,0.17609,-0.84415,-0.28305,0.45668,0.63523,1.2729,-0.30857,-0.8187,-0.46161,-0.33406,0.94131,0.53319,-0.30854,0.048549,-0.66566,-0.43613,-0.30856,0.3036,0.32913,-0.002448,-0.078966,-0.12996,0.15054,0.15057,-0.46161,0.30358,-0.12995,-0.41044,-0.436,0.48206,0.38003,0.227,0.63518,0.55875,0.22713,-1.0993,-1.1247,-0.12991,0.17609,0.20155,0.20156,0.58419,0.12506,-0.20651,0.8393,0.17612,-0.99724,-1.2013,-0.25757,0.30358,0.86475,0.3802,-0.4616,-0.84416,0.176,0.60963,0.58422,-0.436,0.17609,0.27811,0.50764,0.50771,-1.3542,-1.2523,0.30356,0.32905,-0.46154,0.074093,0.60974,0.099559,0.48215,0.12501,-0.69118,-0.61463,-0.56364,0.30366,0.15061,-0.46162,-0.35958,1.426,1.1709,-0.10452,-0.86972,-0.48708,-0.97176,-0.18105,0.023047,0.27814,0.78823,0.76273,-0.10445,-0.43609,-0.20656,-0.13,0.17604,0.17611,-0.53803,-0.51258,-0.66563,0.048616,0.91575,0.53307,0.15047,-0.002521,-0.25754,0.32907,-0.027871,-0.35951,-0.10449,-0.28292,-0.027969,1.0943,-0.53816,0.27806,0.78823,-1.3034,-0.53809,0.91586,0.48219,-0.48714,0.17607,0.30363,0.73722,0.66072,-0.6657,-1.1248,-1.737,-0.6401,0.45675,0.53328,0.99228,1.0178,0.15056,0.099546,0.25267,-0.56359,-0.35959,-0.053525,0.15048,-0.079026,-0.079008,-0.79302,0.27811,0.3801,-0.30857,-0.283,0.023103,0.43119,0.15054,0.048573,0.20157,0.38006,0.35458,0.074051,-0.35956,-0.12995,0.04858,-0.97174,0.17608,0.63522,0.99244,-0.97169,-0.86979,0.22704,0.58417,-0.20652,-0.028005,-0.002479,-0.23201,0.12506,-0.1555,0.20155,-0.28303,0.15062,-0.35951,0.2526,-0.053446,-0.10454,-0.0535,0.32914,-0.58895,0.63507,0.2271,-0.15549,-0.86967,-0.38505,0.048482,0.43106,0.0741,-0.38498,0.48219,0.2526,-0.1045,-1.3034,0.32909,0.63524,0.022998,-0.283,-0.25743,-0.35954,0.023108,1.5024,-0.15562,0.099528,-0.002565,0.4056,0.074062,-0.9972,-0.002454,0.3802,0.35466,0.17612,-0.25741,-0.30867,0.27806,-0.64006,-0.35963,-0.51262,-0.20646,-0.7166,0.71178,1.1708,0.81368,0.023059,0.40555,0.68622,-0.30855,-1.2268,-0.94622,-0.18097,0.27813,0.32912,0.32912,0.30364,0.17613,0.30364,-1.4054,-0.64012,0.2016,0.55869,0.30361,0.22708,0.40564,-0.20656,-0.33407,-0.18098,-0.58918,-0.48709,0.048598,0.55869,0.94115,0.55861,-0.48705,-1.4052,0.023035,0.7372,0.58413,0.2016,0.30359,0.12507,-0.10453,-0.15553,-0.33405,0.15062,0.55875,-0.51257,-0.89519,-0.43607,-0.078984,-0.23207,0.66067,0.27808,0.099613,0.7628,0.20159,-0.84424,-2.3237,0.53317,1.0433,1.3239,0.48225,0.55868,0.25255,-0.35959,-0.48714,-0.51263,-0.38505,-1.0481,-0.74201,-0.51246,1.1197,0.48201,-0.30864,0.45662,0.91574,0.32912,-0.84402,-0.66556,0.048531,-0.10457,0.66067,0.48216,0.1251,0.048561,0.38018,-0.89521,-0.10448,-1.5074,-1.2268,0.15056,1.477,0.96682,1.0177,0.02301,-0.25744,-0.74223,0.38014,0.35462,0.50766,0.023017,-0.33406,-0.027969,-0.053513,-0.078977,0.48218,-0.53812,-0.74211,-0.94611,-0.28292,-0.12994,0.15054,0.81368,0.55852,0.53306,0.4311,0.2526,-0.2574,-0.97161,0.45663,0.55867,0.55867,0.22704,0.074008,-1.0993,-0.46155,-0.25749,-0.56358,0.17612,0.40566,-0.28311,-0.1045,-0.28311,-0.99718,1.8851,0.40574,-0.028023,-0.13,-0.51265,-0.18103,-0.28302,0.099583,0.15056,0.7372,0.25263,-0.74211,-0.7676,-0.33405,-0.81866,-0.28314,0.022986,1.7575,1.0433,0.58417,-0.079008,-0.027974,-0.66558,-1.2266,-0.30851,0.45662,0.7116,0.22695,0.7117,0.94142,-0.66565,-1.6094,-0.61462,-0.20653,0.55873,-0.2066,0.71171,-0.23204,0.43118,0.15064,0.074057,0.12509,-0.1299,0.09965,-0.002552,0.25252,0.48208,0.3801,0.12505,0.07413,-0.5892,-0.76773,-0.41055,-0.5125,-0.027956,-0.28294,0.96664,0.58412,-0.43597,0.58423,0.35467,-0.35958,-0.181,0.12503,0.25255,0.15054,0.30355,0.25256,0.20156,-0.25745,-1.0481,-0.30858,0.30363,0.76278,-0.53812,-1.788,-1.584,0.86475,1.0179,1.9871,-0.02795,0.48224,0.43115,0.048536,-0.30856,-0.58916,-0.18112,-0.6657,-0.41064,0.32907,-0.12992,-0.053329,-0.3849,0.17605,0.099534,0.17602,-0.002674,-0.053573,0.55867,0.48223,0.04858,-0.35945,0.38017,0.68621,-0.41055,-0.9462,0.78823,-0.66569,-0.053488,0.099577,-0.81866,-0.283,-0.79322,-0.51263,0.55871,0.68624,0.27808,0.4311,0.45662,1.8851,-0.43601,-1.2523,-0.74221,-0.38506,0.023054,0.17604,0.20155,-0.28304,-0.078935
-0.23204,-0.28303,-0.23204,-0.053446,0.17609,0.3546,0.17609,-0.027987,0.048531,-0.027962,-0.12998,-0.61463,-0.20653,0.30366,0.53318,-0.002485,-0.20652,0.15059,0.023041,0.15059,-0.027962,-0.38508,-0.33409,0.35464,0.40565,-0.25756,-0.43611,-0.053495,0.32913,-0.12997,0.27813,-0.38511,0.074051,0.074062,0.53319,0.17608,-0.053464,-0.13002,-0.053495,-0.30856,-0.30854,-0.35953,0.17606,-0.48711,0.1506,1.0178,0.17607,-0.53818,0.048555,0.38016,0.25266,-0.02795,-0.20654,-0.20654,0.02301,0.15058,-0.10452,0.20158,-0.23204,-0.51262,0.81379,0.91583,-0.078953,-0.43609,0.15054,-0.079039,-0.99726,-0.53809,0.40569,0.58424,0.27808,0.17611,0.45666,-0.51271,-1.1759,0.074044,0.83927,1.4005,0.35471,-0.35946,-1.1247,-0.23205,-1.3544,0.12502,0.83927,0.78828,0.35465,-0.23205,-0.35964,-0.28303,-0.385,0.12509,0.32909,0.15054,0.48216,0.86481,0.3036,-0.18108,-0.30856,-0.48708,-0.027895,0.3292,-0.61463,-0.46164,-0.38505,-0.002497,-0.10449,0.023065,1.3239,0.12506,-1.7115,-0.51265,1.3495,1.0944,-0.079008,-0.38519,0.53314,0.32918,-0.71666,-1.1502,-0.8697,-0.027998,1.1198,0.76277,0.60972,0.50773,-0.28305,0.12496,-0.25759,-0.33406,-0.66559,-1.5584,0.048487,0.48218,1.0179,0.9158,0.38019,-0.28309,-0.56354,0.38006,0.12508,-0.30858,0.048549,-0.027998,-0.74223,1.0434,1.9617,-0.79321,-1.0738,-0.48717,0.023065,-0.43601,-1.4564,0.48219,1.63,0.96679,0.45664,0.48218,-0.053495,-0.25753,-0.4871,-1.2013,0.99232,-0.053476,-0.43614,0.27806,-0.15537,-0.48697,-1.0992,0.099521,0.78813,0.58407,0.20156,0.17606,-0.23207,-0.028054,0.66053,-0.43585,0.86478,0.55871,-0.4358,-0.33405,-0.58912,0.32912,-1.5075,-0.66569,1.1454,0.83927,-0.18104,-2.1196,-1.4819,1.0434,2.4463,0.9668,0.58419,0.048567,-1.3288,-0.38508,-0.23205,0.35458,-0.002461,-0.48708,-1.0737,-0.35956,-0.46162,0.099534,1.3238,-0.30844,-0.43595,-0.35945,0.023035,1.0941,-0.23196,0.68613,0.53316,0.30353,0.35461,-0.2065,0.15064,0.66081,-1.2522,-2.1961,-0.86967,0.25259,0.73728,1.0434,-0.10449,-0.61468,-0.4106,0.94132,1.0688,0.76275,-0.56364,-0.28309,-0.41061,0.15059,0.20155,0.40563,0.17607,-0.35954,-0.53805,-0.48699,-0.35951,0.022974,-0.283,0.17605,0.48213,0.76263,0.15051,-0.53805,-0.25754,0.3547,-0.33393,-0.76764,0.35457,0.3801,1.0943,0.73723,-0.23208,-1.7881,-1.5074,0.15062,0.81382,-1.0482,-0.05347,1.6556,0.96686,-0.53811,-0.58914,0.023035,0.074075,-0.41062,-0.028018,0.86481,0.78822,0.15052,-0.079033,-0.56363,-0.51255,-0.51257,-0.13002,-0.28304,-0.002461,-0.43609,-0.13004,-0.15537,0.38019,0.78819,0.58413,0.22707,-0.10449,-0.05339,0.09957,-0.69122,-0.56357,0.8138,0.81374,-0.69116,-1.5329,-0.99729,0.89031,0.048573,-0.28303,1.0689,1.1454,1.0433,-0.20652,-0.33406,-0.53812,0.099534,-0.46165,-0.18103,-0.53808,-0.53804,-0.078935,0.15054,0.48212,0.12504,0.22707,-0.35953,-0.20655,0.15057,0.38011,0.66067,-0.89493,0.22715,0.66068,0.58411,-0.13009,0.023023,-0.46159,-0.28302,-0.18099,0.048549,-1.3544,-0.48706,0.68625,0.22712,0.81384,0.60974,-0.2831,0.023035,-0.25754,-0.58914,-0.00251,0.91581,0.66072,0.30358,-0.46164,-0.48708,-0.86964,-0.92065,-0.18103,0.89022,0.25253,0.12505,0.023059,-0.46147,0.023084,-0.25761,0.7882,0.45666,-0.10451,0.17604,0.32914,-0.12998,-0.25754,-0.66556,0.25265,0.91581,-0.10451,-1.3289,-0.66566,-0.61467,0.83927,-0.33407,2.1402,1.5025,-0.58913,-1.6094,-0.25753,-0.15552,-0.33407,0.66075,1.0688,0.48216,-0.51263,-0.7932,-0.23207,-0.18101,-0.02798,-0.1045,-0.23195,0.20158,0.074069,0.30356,0.94115,-0.51244,-0.078886,-0.76756,0.023017,0.023005,-0.028078,0.12504,0.22712,-0.07899,0.2271,0.60973,0.15061,-0.35954,-0.56362,-0.97171,-1.0737,0.38012,1.1709,0.73725,-0.38511,0.074044,0.45669,0.38012,-0.18101,-0.2575,-0.56358,-0.002436,0.20155,0.073984,0.023054,0.022992,-0.079039,-0.53814,-0.58908,-0.74208,0.35465,0.32912,0.43121,0.6352,0.89022,0.50763,0.20153,-0.10443,-0.71656,-1.1247,-0.61463,-0.079093,0.66064,0.91584,0.12506,-1.4564,-0.97174,0.68626,-0.002472,-0.30856,0.50771,0.6862,-0.20651,0.58422,0.22711,-0.28306,0.17609,-0.28303,-0.35961,0.023041,0.15056,-0.13,-0.28306,-0.028036,0.32909,0.1761,-0.35949,-0.43606,0.074051,-0.027962,0.27805,0.32908,0.22707,0.60963,0.30358,0.048604,-0.25746,-0.53806,-0.46153,-0.48706,0.099559,0.78825,0.6607,-1.482,-0.46163,0.50768,-0.41058,0.4312,0.68628,-0.15554,-0.25752,0.048531,0.17607,0.66074,0.6097,-0.002528,-0.41062,-1.0483,-0.99721,-0.18095,0.074118,0.32907,0.71173,-0.33404,0.30362,0.32918,-0.15554,-0.48713,-0.51258,0.35458,0.45662,0.60965,0.15059,0.20169,-0.20641,-0.35951,-0.002503,-1.5585,0.40562,0.71177,1.0434,-0.46156,-0.20654,-0.46164,-0.20655,0.099595,0.58425,0.20159,-0.30858,-0.25757,0.023029,0.32914,-0.30855,0.5332,0.78821,-0.46162,-0.23199,-0.48701,-0.48707,-0.53805,0.12501,0.07394,0.58415,0.6862,0.58414,-0.10443,-0.30844,-0.56351,0.17604,-0.28312,0.048487,-0.43613,-0.58908,0.91581,1.3239,0.60969,-0.66567,-0.38505,-0.30854,-0.053446,-0.6401,-0.46159,1.0943,0.35465,0.27809,-0.18104,-0.30855,-0.10452,-0.12999,-0.41057,-0.33407,-0.35955,-0.079021,0.12505,0.83924,0.55871,0.099577,-0.18095,-0.41057,-0.71668,-0.079039,0.58416,0.68616,0.35462,0.048616,-0.027962,-0.078953,-0.15548,0.048543,-1.0228,-0.61464,0.76275,0.35463,-0.35956,-0.53815,0.2016,1.1964,0.099577,-0.69118,0.38014,0.5332,-0.079008,-0.10453,-0.35957,-0.35957,-0.13001,0.30366,0.17606,-0.027987,-0.20649,-0.56354,-0.3595,-0.002461,0.048525,0.73715,0.45659,-0.027974,0.40558,0.099559,-0.25746,-0.35942,-0.53801,-0.28305,0.073989,0.27805,-0.027987,-0.25762,0.2271,0.58425,-1.0993,-0.35954,0.27815,0.25258,0.73721,0.27808,0.15059,-0.053446,-0.12993,-0.053495,-0.43611,-0.13006,-0.18103,0.12505,-0.027944,0.023065,-0.053476,-0.10449,-0.18097,0.60967,-0.30858,-0.33406,-0.053439,0.1506,0.15056,0.63521,0.27808,-0.43613,-0.18101,0.48222,0.099601,0.099534,-0.56364,-0.61465,0.22709,0.81376,0.023017,-1.1503,0.35464,1.2474,-0.66564,-0.23207,-0.078984,0.30367,-0.71666,0.6862,0.22707,-0.25756,-0.41057,-0.10446,0.20156,-0.23205,0.40569,0.30361,0.048561,0.27811,0.04858,-0.66558,-0.35957,-0.07907,0.12497,-0.12999,-0.46151,0.17607,0.074008,0.45656,0.38013,0.43121,-0.43598,0.15059,-0.15556,-0.46165,-0.23202,-0.20648,-0.23201,0.30359,0.71177,0.17611,-0.3341,-0.079008,-0.61465,0.83927,0.12506,-0.18101,-0.35958,-0.079008,0.27813,0.023029,-0.15548,-0.23198,-0.28294,-0.20649,-0.38505,-0.33406,-0.20656,0.48206,0.68615,0.96676,0.58418,-0.10445,-0.4105,-0.25753,-0.18098,-0.053495,-0.15554,-0.027993,0.20161,0.2271,-0.8187,-0.053482,-0.69116,-0.20652,0.25261,1.1708,0.53318,-0.18101,0.15059,-0.10449,-0.35958,-0.71665,0.09957,0.43118,-0.053488,-0.027974,-0.15553,0.048543,-0.15557,0.30355,-0.028011,-0.436,-0.53807,-0.25746,-0.1554,0.22706,0.6096,0.35457,0.22706,-0.053421,-0.002443,0.30358,-0.15552,-0.20649,-0.25751,-0.079008,0.20155,-0.23205,0.27811,0.074051,-0.23201,-0.02792,0.76277,-0.74221,-1.0993,-0.46161,0.45666,0.96684,1.0689,0.66073,-0.48717,-1.3034,-0.20651,0.32912,0.35463,0.04858,-0.20646,0.63523,0.38006,-0.25762,-0.38505,-0.84406,-0.41051,0.02298,0.15049,0.12505,0.43115,0.35461,-0.10449,0.12507,0.20158,0.35467,-0.81865,-0.61462,-0.12999,0.32912,0.099546,0.55868,0.09954,-0.15549,-0.2065,-0.30855,-0.002405,-0.12998,-0.61471,-0.3341,1.0179,1.2474,0.48211,-0.13002,-0.30858,-0.30855,-0.53806,-0.33406,-0.30856,0.45662,-0.078947,-0.41047,-0.4615,-0.25749,0.4565,0.43108,0.45656,-0.078972,-0.10445,0.2016,0.48213,0.43117,0.40566,0.20159,-0.35954,-1.2268,-0.30856,-0.46162,0.43117,0.8648,-0.232,0.20161,-0.23207,0.38011,0.73729,-0.002436,-0.23203,-0.18104,-0.48713,-0.41064,-0.12999,0.2271,0.2526,0.04861,0.15054,0.099564,-0.51252,-0.027987,0.12509,0.074075,0.15051,0.20154,-0.053544,0.32912,0.35461,-0.002423,-0.12994,-0.0535,-0.23202,-0.15549,-0.15553,-0.48709,0.023078,0.27811,0.15058,-0.61465,0.12508,-0.41055,0.40561,0.48216,-0.028018,0.22711,0.71176,0.099546,-0.58911,-0.4106,-0.23205,-0.10447,0.40561,0.12507,0.2526,-0.002381,-0.35956,-0.15551,0.074087,-0.81868,-0.33404,0.50761,0.60962,0.27808,0.17612,0.38019,0.20153,-0.10445,-0.18103,-0.4361,-0.51257,0.17615,0.32913,-0.51262,-0.25757,0.58421,-0.15551,0.12509,0.32915,-0.20657,-0.027907,0.074081,-0.53813,0.38011,0.43111,0.60971,0.50769,-0.30855,-0.30855,-0.30861,-0.28304,-0.35956,-0.15548,-0.15548,-0.1044,0.074118,0.38008,-0.053537,0.022986,0.074044,-0.002479,0.50765,0.12503,0.20156,-0.078966,0.048561,-0.18098,0.22708,0.15062,-0.5126,-0.61464,-0.38506,0.17609,0.048585,0.3036,0.35465,0.074033,0.099552,-0.18101,-0.28308,-0.33405,0.074062,0.074087,-0.1045,0.50765,0.048531,0.17608,0.68625,0.53323,-0.5891,-0.9972,-0.92071,-0.41057,0.048506,0.27803,0.50761,0.71167,-0.2065,-0.20647,-0.28295,-0.027938,0.38023,0.12501,-0.51263,0.7117,0.12504,0.9158,-0.28306,-1.5584,-1.2778,-0.002387,0.91581,1.4514,0.86474,-0.30858,-0.53813,-0.30856,-0.43606,0.023054,-0.078972,-0.43607,0.22712,0.3291,0.66067,0.20159,-0.13,-0.66556,-0.33405,-0.028036,-0.10449,-0.028011,-0.48711,0.048531,0.50761,0.48216,0.6607,0.43117,0.074069,0.27811,-0.18101,-0.58911,-0.58913,0.1761,-0.23197,-0.23204,0.50766,0.074062,-0.15552,0.099552,1.1199,-0.41055,-1.5329,-1.1248,-0.079021,0.53317,0.91578,0.91579,0.71173,0.27813,-0.12998,-0.48702,-0.56358,-0.20654,-0.002528,-0.33412,0.38008,0.53312,0.4311,-0.58901,-0.89507,-0.20652,0.048458,0.6352,0.2526,0.17609,-0.28299,0.35459,-0.053427,-0.53809,0.25256,-0.4616,-0.64014,-0.41057,-0.027969,0.71173,1.0943,1.1199,0.66074,-0.20655,-0.76768,-1.0482,-0.43607,0.32913,0.12505,0.07402,-0.15553,-0.053519,-0.23202,0.12506,-0.027987,-0.43607,-0.53803,0.12515,0.048458,0.86473,0.55872,0.6607,-0.58913,-0.30856,-0.027969,0.32913,-0.1555,-0.18106,-0.48711,-0.23202,0.12509,0.38016,-0.078966,0.48223,0.074081,-0.41056,-1.0993,-0.46164,0.45664,0.89029,0.45665,0.43117,1.0944,-0.0535,-0.76769,-0.23202,-0.74216,-0.35962,-0.15559,0.17609,0.22719,0.3292,0.023023,-0.20652,-0.15554,-0.028005,0.048482,-0.002467,-0.43605,0.25269,0.81373,-0.053495,-0.56364,-0.30857,0.15059,0.12505,-0.078953,0.43122,0.30364,-0.002479,0.12504,-0.92075,-0.28305,0.17609,0.15054,0.048536,-0.002472,0.71181,0.023108,-0.1555,-0.079008,-0.38514,0.40564,0.25259,-0.23208,-0.51262,0.023059,-0.027969,-0.12998,0.35466,0.35465,-0.053458,0.048543,-0.30851,-0.35951,-0.35948,-0.2575,0.022943,0.73711,0.43108,0.12507,0.04861,0.30365,-0.12998,-0.7422,-0.74218,-0.58915,0.25259,0.73725,0.35467,0.22708,0.25261,0.63526,-0.64013,-0.64015,0.22709,-0.05347,0.023035,0.22708,-0.18098,0.2271,0.2271,-0.33406,-0.94625,-0.15549,0.074062,-0.079008,-0.079008,0.48216,0.48218,0.40565,0.048604,0.099583,-0.053513,-0.41058,-0.53806,-0.053476,0.48212,0.38006,-0.10455,-0.51263,-0.20643,0.38016,0.17614,0.048549,-0.18104,-0.30856,0.17606,-0.12996,-0.23204,0.55871,0.48216,-0.38511,0.023065,-0.053464,-0.20652,0.048543,0.35461,-0.10451,-0.30855,-0.15548,0.1506,0.25263,0.3546,-0.23208,-0.4106,-0.35953,-0.002472,0.17609,0.2271,0.048536,0.35463,-0.2065,-0.053488,-0.02798,-0.48714,0.048561,0.45665,0.76273,0.2271,-0.002503,0.15059,-0.48708,-0.66562,-1.2013,-0.64015,-0.002461,0.96685,0.53318,0.81374,0.83922,0.099546,-0.33402,-0.28303,-0.20655,-0.181,-0.41057,-0.35957,0.32905,0.25258,0.25261,-0.23198,-0.053482,-0.079014,-0.20652,-0.23201,-0.23196,0.023072,0.074062,0.27808,0.76266,0.50762,-0.13,-0.28301,0.099546,-0.15551,0.38017,-0.46159,-0.4616,-0.13,0.048567,0.048536,-0.30856,-0.10448,0.4312,0.43117,0.76272,0.27813,-0.027993,-0.35957,0.099552,0.17607,-0.18103,-0.33404,-0.25753,-0.38506,-0.35956,-0.07899,0.2526,0.2526,-0.078959,-0.027969,-0.10454,0.048531,0.48219,-0.25746,-0.33408,-0.15554,0.22707,0.78824,1.2729,-0.078977,-0.41055,-0.35953,0.074062,-1.0738,-1.2268,-0.28303,0.60973,0.55868,-0.028018,-0.1045,-0.027938,-0.23202,-0.25756,0.45666,0.86478,0.0485,0.0485,0.25261,0.12511,0.048561,-0.35953,-0.13001,-0.25753,-0.3851,-0.58914,-0.38508,-0.079008,0.5842,0.25265,1.0178,-0.15549,-0.64016,-0.13007,0.32907,0.45665,0.074136,-0.027871,0.15064,0.20159,-0.56369,0.27808,0.53318,-0.33406,-1.0483,-0.69116,-0.7932,-0.079008,0.68622,0.58425,0.60977,-0.33407,0.40561,0.20156,-0.38509,0.17612,0.15059,-0.20657,-0.13002,-0.027962,0.25262,0.074026,0.12505,-0.078959,-0.25753,-0.38502,0.074062,0.32913,0.17608,0.25254,-0.1045,-0.20652,-0.33405,-0.15553,0.12504,-0.25752,0.40561,0.38015,-0.002461,-0.002405,0.20165,-0.002497,-0.56366,-0.56358,-0.13,0.73723,-0.18103,0.048536,-0.33408,0.27812,0.68626,0.43116,-0.20652,-0.12999,-0.002448,-0.181,-0.053495,-0.30858,-0.002467,-0.23204,-0.13003,0.15059,0.15059,-0.35951,-0.23202,-0.18103,0.30359,0.27814,0.099577,0.55864,0.48208,0.20155,-0.12994,-0.078923,-0.30855,-0.81873,-0.15553,0.55872,0.68624,0.1251,-0.81873,-0.41059,-0.46159,-0.35958,0.023017,0.43118,0.86483,0.45667,0.3546,0.20158,-0.10448,-0.66565,0.20158,0.3291,-0.48712,0.023059,0.30363,0.20161,-0.15553,-0.28308,-0.3341,-0.41054,-0.15542,-0.92055,-0.027944,0.73712,0.66064,0.22704,0.25254,0.5841,0.099564,-0.38499,-0.10439,0.22713,-0.053427,-0.58919,-0.079033,-0.10447,0.17608,0.35463,0.12507,-0.078977,-0.33401,0.63522,-0.053488,-0.69119,0.023023,0.27809,-0.20649,0.2271,0.12507,-0.053476,-0.079008,-0.053506,-0.12999,-0.28302,0.074057,-0.35954,0.074013,0.45665,0.20163,-0.053439,0.27811,-0.13003,-0.20656,-0.23207,-0.15548,0.25262,-0.02792,0.27814,0.12508,0.27808,0.50767,0.35463,-0.94625,-1.635,-0.5381,0.55871,0.78824,0.2271,0.25262,0.15062,-0.18101,0.2271,0.30363,0.35466,-0.33409,0.15055,0.023041,-0.3596,-0.079039,-0.23201,-0.20649,-0.38498,-0.35951,-0.028018,0.66065,0.78825,0.35459,-0.078984,-0.12998,-0.027944,-0.1555,-0.53803,0.074057,-0.2066,0.27811,0.022998,0.22705,0.35467,0.15052,-1.1757,-0.66561,0.55872,0.63524,0.074033,-0.00251,0.074008,0.2016,0.94132,-0.56362,-0.58912,-0.05347,-0.61464,0.27812,0.099534,0.20159,-0.028029,0.023047,0.25265,-0.12991,-0.33401,-0.13007,0.22704,0.022998,0.099559,0.25259,0.099521,-0.15554,-0.15542,0.2017,0.30366,0.20157,0.32912,-0.20658,-0.1046,0.125,-0.41063,-1.1502,0.3802,0.76271,-0.28305,-0.5126,0.023047,0.73726,0.83926,0.32909,-0.89527,-0.181,0.35465,-0.84419,-0.38503,-0.23199,0.45666,0.30366,0.20156,0.22702,0.22706,0.17604,-0.2575,0.15057,-0.002472,-0.436,0.32912,-0.053513,-0.58916,-0.74218,-0.078966,0.17617,0.20163,0.3801,0.25262,0.55864,0.17609,-0.18098,-0.078984,-0.20655,-0.23205,0.66075,-0.41054,0.09957,0.68625,-0.027956,-0.97175,-0.81873,-0.15557,0.3291,0.89031,0.2016,-0.69113,0.22715,0.35467,0.27812,0.15055,0.30363,0.9923,0.48211,-0.89517,-0.97166,-0.51258,-0.18109,0.022919,-0.15554,-0.002472,-0.18097,0.12509,0.30366,0.48219,0.76275,-0.079002,-0.35959,-0.028018,-0.10449,-0.38505,-0.4105,0.25263,0.53311,-0.12993,0.074062,-0.15556,-0.13002,-0.28304,0.32913,0.32915,-0.53807,-0.30856,0.45663,-0.079021,-0.10452,0.074044,0.63518,0.40569,0.1251,0.1251,-0.35954,-0.41064,-0.43613,-0.30859,-0.027944,-0.002399,0.22709,-0.20652,-0.053451,-0.053525,-0.053495,0.20158,0.38016,0.30361,0.38018,0.22705,-0.35964,-0.48705,-0.002454,-0.027969,-0.64012,-0.61466,0.38014,0.63526,0.81378,0.43117,-0.58914,-0.20651,-0.027956,-0.4616,-0.30855,0.15056,0.099521,0.35461,0.83927,-0.48712,-0.92075,-0.43607,0.38019,0.15057,-0.48708,0.27817,0.63521,0.2526,0.12505,-0.20653,-0.23202,-0.9971,-0.43607,0.48207,0.43109,0.02301,-0.053482,0.048549,0.48216,0.58416,-0.35959,-0.53807,0.15059,0.35466,0.40569,-0.71667,-0.43609,-0.43607,-0.56361,-0.13002,0.30361,0.60974,1.0943,0.20159,0.2016,-0.74218,-0.38512,0.38012,0.45662,-0.053439,-0.25748,-0.13002,0.07402,-0.69111,-0.51254,0.22704,0.048512,0.27809,0.35459,0.30363,0.17609,0.023054,0.09957,-0.078935,-0.30852,-0.51258,-0.13002,0.5332,-0.002399,0.48214,0.25257,0.023047,-0.81871,-0.7677,-0.89522,-0.18109,0.50765,1.1453,0.35463,0.99233,0.50773,-0.48704,-0.30852,-0.33403,-0.8442,-0.002461,0.17607,0.023041,0.55867,0.17608,-0.20652,-0.3341,-0.53812,-0.4615,0.25267,0.32908,0.20153,0.58417,0.048555,-0.028036,-0.20649,0.09954,-0.12996,0.15059,-0.25748,-0.33405,-0.13003,0.55869,-0.002448,-0.1045,0.17609,-0.66562,-0.35957,-0.15551,-0.46154,0.074062,0.58416,0.81378,0.73728,0.15058,-0.20655,-0.6147,-0.43612,-0.56362,-0.23201,-0.10445,0.43112,0.73722,0.35462,-0.002394,-0.33396,-0.15553,-0.46158,-0.51263,-0.15555,0.25257,0.023017,0.45664,0.6607,0.66067,-0.18101,-0.43605,0.099595,-0.18099,-0.58911,-0.33407,0.3291,0.1506,0.27814,0.22708,-0.002436,-0.002479,-0.43612,-0.81871,0.023047,-0.51263,0.35463,1.3494,0.63522,0.2016,-0.5126,-0.13001,0.25261,-0.12999,-0.33407,-0.18102,0.074008,0.073989,-0.10448,-0.027925,-0.38502,0.048536,-0.12996,0.25257,-0.23203,0.17605,0.048555,-0.18103,0.35462,0.66075,0.55866,0.02301,-0.15553,-0.28304,-0.74216,-0.69116,-0.43604,0.22711,0.17608,0.99232,0.73723,0.09957,0.25265,0.1506,-0.58915,-0.51263,-0.30859,-0.23208,0.074013,0.3036,-0.23202,-0.51255,-0.053421,0.22707,0.25259,0.20163,-0.46157,-0.56361,0.20159,0.68622,0.30364,-0.10449,-0.30859,-0.002479,0.53315,0.35461,-0.25754,-0.053495,-0.5891,-0.15548,-0.38501,-0.15551,-0.64017,-0.002405,-0.25756,0.048536,0.20161,0.17609,0.27809,0.35462,0.40564,0.30362,0.7883,-0.56362,-0.23205,0.17608,-0.28306,-0.25759,-0.053476,0.45662,0.12502,-0.38507,-0.71652,-0.53803,-0.10447,0.32913,0.48213,0.32902,0.12505,0.30357,-0.027931,0.048592,-0.027901,-0.74218,-0.51268,0.4056,0.53321,0.78823,-0.181,-0.64011,0.50769,0.48216,-0.74214,-1.1248,-0.35953,0.35472,0.91576,0.25258,0.38011,0.5076,0.15056,-0.99725,-0.86974,-0.2575,-0.053482,0.22711,0.27812,0.40562,0.099546,-0.33407,-0.027931,-0.23193,-0.20647,-0.12994,0.3036,-0.00251,0.17603,0.048543,0.32907,0.27805,-0.20655,0.074038,0.048592,-0.283,-0.97163,-0.56354,0.6352,0.5841,0.3291,0.35462,-0.079021,-0.35953,-0.64012,-0.23206,0.30364,0.15059,0.66072,0.71175,0.023054,0.074033,-0.25759,-0.23203,-0.25748,-0.33403,-0.61462,0.099546,0.2526,0.3801,0.099521,0.25255,-0.079039,-0.53812,-0.43604,0.074062,0.023133,-0.18089,-0.20646,-0.002405,0.55862,0.76263,-0.053464,0.048487,0.09951,-0.15554,-0.30856,-0.053476,-0.002472,-0.10446,0.55872,-0.41059,-0.8187,-0.18097,0.04858,-0.15553,0.2271,0.25263,0.32912,0.17604,-0.20653,0.2016,0.22708,-0.20653,-0.43612,0.20161,0.048573,0.074081,-0.2575,-0.18102,0.22705,0.58415,-0.053476,-0.51261,-0.76762,-0.13,0.45658,0.58416,0.40565,-0.10444,-0.002454,0.2526,0.27811,-0.41053,-0.84415,-0.23204,0.15054,0.3036,0.32918,0.25261,-0.43612,0.35463,-0.002479,0.099564,-0.15551,-0.15548,-0.53808,0.074051,-0.23207,-0.23209,0.22706,0.71173,-0.02798,0.17609,-0.10444,-0.078904,-0.33394,-0.10447,0.20154,0.30352,0.12502,0.20159,-0.28305,-0.92068,-0.38506,-0.43609,-0.15553,0.25259,0.58421,0.50771,0.89025,0.30363,-0.10448,-0.89512,-0.33404,0.099515,-0.13,-0.12999,-0.002534,-0.66572,-0.58916,0.38011,0.63526,0.48227,-0.002394,-0.3596,-0.078996,0.25256,0.12502,0.66074,0.048536,-0.51267,-0.46157,0.25268,-0.002418,-0.3595,-0.30858,0.17601,0.68621,0.3546,-0.23201,-0.38506,-0.078996,-0.25748,0.17609,0.17606,-0.002448,-0.078996,0.35457,0.35463,0.35461,0.30366,0.048598,-0.61457,-0.028042,-0.61465,-0.43605,-0.002418,0.1251,-0.10454,-0.23205,0.60967,0.71173,0.15059,-0.46156,-1.3289,-1.2269,-0.4106,0.83931,1.6045,1.0433,0.91581,0.15062,0.43119,-0.13007,-0.94631,-1.1248,-0.61457,-0.9972,0.17602,0.35461,0.30365,0.43115,-0.41049,-0.51262,-0.23209,0.25257,0.66068,0.68621,0.38013,0.048592,0.48212,0.30358,-0.79304,-0.41054,-0.12998,0.68628,0.30364,-1.3544,-0.4361,-0.76771,0.12506,0.48216,0.81374,0.63522,0.55872,0.17607,0.048536,-0.33407,-0.43615,0.15059,0.40566,0.099595,-0.18097,-0.35956,-0.20655,0.1761,-0.078917,-0.89519,-0.6657,0.12502,0.50769,0.55873,0.30361,0.53312,0.45659,-0.079002,-0.38501,0.048567,0.099583,-0.20643,0.50766,0.048536,-0.078977,-0.15555,-0.53807,-0.61464,-0.51263,-0.69123,0.17604,0.53321,1.579,0.27812,-0.43609,-0.28303,0.50766,-0.61464,0.17612,0.50768,0.45667,0.50772,0.53317,0.15055,-0.41057,-0.89522,-0.53821,-0.38509,-0.3595,-0.51251,-0.1555,0.25255,0.32901,0.45666,0.43121,-0.23189,-0.48702,0.27801,0.27802,0.073989,-0.51258,0.43111,0.099632,0.32914,0.12509,-0.053458,0.38015,-0.41057,-0.58914,-0.58911,-0.41061,-0.33406,-0.64015,0.63521,1.5025,0.50766,-0.027993,-0.5891,0.12507,0.38013,0.022998,-0.10449,0.048567,-0.053495,0.12507,-0.64014,-0.33409,-0.41058,-0.23201,0.12507,-0.15541,0.32917,0.53325,0.86468,0.27808,-0.20654,-0.71666,-0.13005,-0.35959,0.20152,0.43117,1.2473,0.48218,-0.64012,-1.0992,0.22715,-0.027938,-0.71667,-0.43606,0.35465,0.91579,0.60969,-0.23205,-0.48711,-0.002461,0.1506,-0.35959,-0.64015,-0.23201,0.81378,0.40566,0.25262,0.40561,0.76269,-0.25759,-0.5891,-0.6911,-0.64004,-0.10446,0.30358,0.48213,0.27808,-0.00251,0.074013,-0.078923,-0.41054,0.048476,-0.35948,0.12513,0.30363,-0.18106,0.22704,-0.35959,0.2016,-0.18101,-0.18104,-0.35959,-0.35954,0.43121,0.81376,0.45668,0.55872,-0.13002,-0.002412,0.20157,-0.64019,-0.69119,-0.89519,-0.28295,0.023005,0.30356,0.20159,0.7372,0.40563,-0.12995,-0.46159,-0.38505,0.38018,-0.079051,0.15052,-0.027962,0.17612,0.17611,0.17603,0.12503,-0.33404,-0.48705,-0.41055,-0.20642,0.20166,0.45664,-0.13007,0.58413,0.35461,-0.6912,-1.4054,-1.3798,-0.20649,1.1199,0.17607,0.86478,1.4004,0.60965,-0.027974,-0.64011,-0.66564,-0.13002,-0.078977,-0.078972,0.12507,0.048567,-0.05347,0.22707,-0.48714,-0.078977,-0.84416,-0.92072,-0.53812,0.048555,0.53327,1.4768,0.63528,0.4568,-0.33394,-1.0228,0.12486,-0.002479,0.58413,0.22704,0.63514,1.5025,-0.43603,-1.0227,-1.3033,-0.64012,-0.38503,-0.053458,0.66077,1.375,0.02309,-1.0483,-0.51268,0.89024,0.9923,0.22708,0.32914,-0.15551,-0.28306,-0.35957,-0.002503,-0.28308,-0.23205,0.074118,-0.10447,-0.35951,-0.079045,-0.64006,0.25256,0.5076,-0.053372,0.81368,0.73714,0.38008,0.17609,0.023041,-0.51257,-0.25747,-0.69111,-0.58908,-0.4616,0.15052,0.66072,0.45668,0.15057,-0.20654,-0.56359,-0.12999,0.12503,0.73726,0.15059,0.32914,0.50767,0.074038,-0.25751,-0.53811,-0.66568,-0.66569,-0.48709,-0.18098,0.074111,-0.25748,0.20161,0.3036,0.30359,0.68613,0.02301,-0.283,0.048604,0.048543,0.38003,0.074051,0.35459,0.023059,-0.46153,-0.053446,-0.5636,0.12509,0.25263,-0.48709,-0.10451,-0.69117,-0.053506,0.48216,0.30363,0.60971,0.71173,0.43115,0.20162,-0.64017,-0.41058,-0.12999,0.20157,0.20159,-0.48709,0.48216,0.15054,-0.25754,-0.7421,-0.64003,0.22713,0.30358,0.32908,0.32905,0.3291,0.68615,-0.18099,-0.64006,-0.38508,0.099534,0.78826,0.074051,0.048525,0.35467,-0.64013,-0.66565,-0.56364,-0.76769,0.048561,-0.20653,0.96683,0.15058,0.048531,0.68622,0.30363,0.45666,0.023029,-0.33407,-0.30851,0.074044,-0.46163,-0.053506,-0.079033,-0.18108,-0.53807,-0.385,-0.28297,0.20155,-0.053439,0.55866,0.40557,0.30367,1.5532,0.099742,-1.8386,-0.28306,-0.18099,0.12497,-0.15555,-0.079045,0.66065,0.86472,-0.28306,-1.2013,-0.5891,-0.25752,0.66077,0.27819,0.2271,-0.1045,-0.1045,0.60973,0.40564,0.17605,-0.25758,-0.3851,-0.69116,-0.20652,-0.33405,-0.028018,0.17607,0.25262,-0.078935,0.55869,0.32909,-0.20648,-0.053415,-0.35956,-0.41063,0.073953,0.3801,0.73721,0.32918,0.48217,-0.002443,-0.10446,-0.41051,-0.002418,-0.66564,-0.76766,-0.35959,-0.48711,0.8648,0.48216,0.48214,0.50769,0.38016,0.074062,-0.41059,-0.12999,-0.56364,-0.41058,-0.23203,0.43116,0.89027,0.60969,0.27814,-0.33401,-0.53807,-0.33409,-0.002534,-0.48708,-0.027969,0.32918,-0.002534,0.099528,-0.25748,0.63511,0.25254,-0.92051,0.074075,0.12515,0.4311,-0.13005,0.15051,0.15054,0.17607,0.2526,-0.12998,-0.94623,-0.71662,0.023054,0.023047,0.99234,1.1454,-0.002485,0.35461,-0.33409,-0.99726,-1.1502,-0.74217,-0.30858,1.0943,0.89024,0.09954,-0.53812,-0.15548,0.074062,0.048573,0.048555,0.048555,0.53314,0.58416,0.048585,-0.12997,-0.15551,0.48205,-0.436,-0.2065,-0.13001,0.0485,-0.053525,0.074038,-0.79324,-0.71662,0.38017,0.12507,-0.28302,-0.20649,0.023059,1.426,0.78823,0.58417,-0.18101,-0.027969,0.40568,0.074062,-0.81871,-0.81873,-0.46161,-0.12999,0.048543,0.4311,-0.027913,-0.12997,-0.43601,0.2015,0.35459,-0.053446,0.15057,0.15059,0.20153,-0.58898,0.43111,0.45661,0.22715,-0.28304,0.68622,-0.51265,-0.79324,-0.002516,-0.58911,0.22715,0.12513,0.32915,-0.079026,0.023029,0.81376,0.15058,-0.86971,0.048543,0.78825,0.074069,0.048525,-0.2575,-0.35953,-0.13004,0.22707,-0.23202,-0.46163,-0.43615,-0.13002,0.15059,0.023133,0.38022,0.63516,0.38006,-0.053519,-0.18098,-0.15544,0.20161,-0.23204,-0.002467,0.3291,1.0432,-0.38503,-0.15548,-0.41057,-0.94622,-0.61457,0.43122,0.27811,-0.69121,0.048506,-0.053525,0.6352,0.53321,0.40566,-0.76765,-0.2575,0.27814,0.22713,0.60969,0.35458,-0.23205,-0.12999,-0.027969,-0.13,-0.71668,-0.56362,-0.25754,-0.053488,0.20159,0.55869,0.2271,-0.027974,-0.23202,0.32917,0.074111,-0.23204,0.022974,0.60965,0.30363,0.30364,0.30362,-0.10446,-0.9462,-0.61464,0.5332,-0.28306,-0.43609,-0.81869,0.099588,0.91577,0.15057,0.45667,0.32914,-0.43607,0.5587,-0.33406,-0.66569,0.20159,-0.30855,-0.18105,0.074033,-0.002454,-0.027956,0.20161,0.023084,0.25264,0.25266,0.40562,0.09954,-0.51252,-0.38502,-0.18113,-0.2576,-0.002461,-0.25754,-0.20653,0.35457,0.2781,0.89019,-0.002381,-0.51247,0.074124,0.25261,-0.33409,-0.33407,-0.64017,0.30361,0.48212,-0.4106,-0.30851,0.30363,0.38014,0.27813,0.5077,0.53321,-0.56365,-0.10449,-0.10445,-0.15552,0.25257,0.20155,-0.027998,-0.18103,-0.28306,-0.1555,-0.48706,-0.58907,0.30362,0.60967,0.53318,0.53317,0.12504,-0.15551,-0.51253,-0.5636,-0.15554,0.1251,0.40566,0.53314,0.32916,0.09954,-0.28305,-0.64014,-0.56359,-0.053476,0.074038,-0.33405,0.48216,-0.10452,-0.23206,0.68624,0.94135,0.074062,-0.12999,-0.64015,0.43115,0.048506,-0.43613,-0.48709,-0.20655,0.17611,0.58419,0.12512,0.099595,-0.10448,-0.41061,-0.079002,0.55862,0.50765,0.3291,-0.15551,-0.48703,0.048536,-0.20652,-0.46147,0.074051,0.048487,-0.13004,0.17606,0.81373,0.22708,-0.38509,-0.53807,-0.10439,-0.48711,-0.38506,0.5587,0.78824,0.78827,0.45669,-0.53814,-0.43612,-0.13002,0.023041,-0.13001,-0.30854,-0.027925,0.17611,-0.002454,-0.23205,-0.05347,0.099546,0.48214,-0.30856,-0.053482,0.022998,0.20153,-0.079026,-0.66556,0.30365,0.43113,0.30366,0.048561,-0.46153,-0.35953,0.17603,0.40558,0.35462,0.099588,-0.18098,-0.43608,-0.23206,-0.84425,-0.64018,0.074124,0.53325,0.9158,0.20155,0.45665,0.4056,-0.3851,-0.30853,0.35465,0.15062,-0.56362,-0.61462,-0.69116,0.023023,-0.10454,-0.15551,0.15056,0.15059,-0.078966
