-0.64031,-0.30858,1.0688,0.25264,0.3291,-0.79308,-0.053446,0.22711,-0.02795,-0.35954,0.9157,-0.38517,-0.35961,-1.0482,-0.002369,0.43118,0.27811,1.3748,0.50763,-0.69106,-1.3798,0.099588,1.3493,0.66068,-0.20648,-0.61455,-0.41047,0.32905,0.55862,0.63514,-0.079008,-0.79305,-0.07891,-1.1249,-0.00254,-0.12993,0.78826,1.9615,0.96681,0.45667,-0.053378,-0.66564,-0.38517,-0.41052,-0.66553,-0.6657,-0.002534,0.71171,-0.2829,0.17594,-0.30852,0.048531,0.86473,0.3546,0.38017,-0.74218,-0.58908,1.1198,-0.12993,-0.2832,-0.69116,-0.66549,1.1963,0.96677,0.48214,-0.61457,0.94131,1.4259,-0.79324,-1.9411,-2.5276,-0.41046,1.1709,1.2219,0.60969,-0.35954,0.32904,1.3748,0.12496,-0.97181,-1.5839,-0.6145,0.73724,0.48223,-0.23193,0.048567,0.074013,0.4566,-0.5637,0.22711,0.20164,0.58418,0.15052,-1.0737,-0.46155,-0.10456,-0.18101,0.78824,1.1708,0.30366,-0.66565,-0.99725,0.78834,0.38019,0.40559,-1.2013,0.32911,0.3801,0.12506,-0.2066,-0.53805,-0.23194,1.0688,0.58417,-0.25755,-0.53807,-0.053519,0.83914,0.074087,-0.71646,-0.56359,-0.20669,1.0687,0.58423,-0.97166,-1.2267,0.35464,0.91575,-0.43604,0.15052,0.91577,-0.027864,0.022968,-0.28306,0.94125,-0.69106,-0.84417,0.66074,0.3291,0.43114,-0.027998,-0.18103,0.99229,-0.20651,-0.84424,-1.0227,0.20161,0.48222,0.76268,0.48211,-0.8186,-0.20653,0.45657,-0.79316,-0.20652,0.30368,0.25263,1.1452,1.3239,0.20166,0.17614,-0.76764,-0.002448,-0.79322,-0.18103,-0.2575,-0.12999,0.35458,-0.027993,0.53315,-0.3085,0.25262,-0.079093,-0.23212,-0.15548,-0.078972,0.35467,1.1199,-0.63994,0.6863,0.60949,-0.79324,-0.56369,-0.43612,0.35462,-0.20657,0.35472,0.76278,-0.002443,-0.027993,0.099521,0.023054,0.89029,-0.23194,-0.74221,-1.4563,0.22705,1.3239,0.20153,0.38012,-0.66571,-0.10447,0.96679,0.43115,0.35472,-1.1247,-0.41056,0.32907,0.60971,0.45667,0.023041,-1.1504,-1.0484,0.22704,0.27822,-0.74204,0.3291,1.7575,1.0943,-0.48707,-0.3595,-0.64011,1.3493,0.35456,-0.46154,-0.89515,0.023084,0.68619,0.074008,-0.33408,-1.584,-0.69114,0.76277,0.71175,0.71176,-0.027882,0.53322,0.58407,0.099473,-0.33416,-0.5635,0.58424,0.91577,0.048567,-0.43607,-0.99726,-0.027974,-0.41068,0.25265,0.55872,0.68621,0.074087,0.48221,0.43125,0.25258,-0.6147,-1.1248,0.3291,0.22706,-0.20653,-0.027993,0.20164,0.89027,-0.20653,-0.23201,-0.48712,-0.10451,0.45671,-0.53795,0.12496,-0.027987,0.78827,0.50761,-0.79326,-0.078996,-0.10446,0.20161,0.35463,0.12508,0.35462,-0.15546,0.2526,0.78822,-0.33406,-1.788,-0.33401,0.50761,1.1708,0.68624,0.2781,-1.2778,-0.053513,0.60969,0.074087,0.20157,-0.232,-0.97171,0.91576,0.176,0.2525,-0.13,-0.53798,0.048585,0.78826,0.76275,-0.71661,-0.51268,-0.053549,-0.71666,0.58419,0.76272,0.1251,0.99233,0.45669,-0.58909,-0.38506,-0.13012,-0.079008,-0.61466,-0.12997,-0.43601,-0.15543,0.99223,0.91574,-0.181,-0.86966,-0.25755,0.30362,0.96674,0.25254,-0.38506,-0.078928,-0.181,0.073959,0.86478,-0.48697,-1.0482,0.89014,0.55874,0.09954,-0.07891,0.40556,-0.10452,0.4312,-0.51257,-0.92068,-0.027962,0.78825,0.63515,0.17601,-0.43602,0.2526,0.73719,-0.3341,-0.92071,-0.58904,0.048573,1.0432,0.60957,0.22711,-0.078788,-0.46148,-0.10448,-0.58915,0.27809,0.17615,-0.15559,0.96672,1.3237,-0.79334,-1.7625,-0.20634,1.8085,2.2422,0.38016,-1.6858,-0.69124,0.35455,0.32917,0.099552,0.17614,0.15054,-0.23192,-0.97186,0.30361,-1.0227,-0.56353,1.0687,1.0432,0.5587,-0.76755,-0.94626,1.0177,0.20154,-1.5327,-1.3543,0.86474,2.038,1.1198,0.91581,0.27817,-0.84426,-0.53812,-0.30861,0.1507,-0.30844,-0.002448,0.45659,0.30359,-0.66558,-0.28294,0.45658,0.99202,0.48199,-0.33398,-0.69105,-0.71665,-0.53814,0.023114,0.53311,0.17606,0.32919,0.27814,-0.027864,0.48215,-1.2779,-0.30857,0.83919,-0.51252,1.1964,0.99229,-0.18102,-0.15539,-0.078977,0.17606,-0.64022,0.71169,-0.002405,0.15053,-0.079026,-0.33407,-0.51254,0.55867,0.30353,-0.12998,-1.3542,-0.30856,0.50774,1.1199,-0.35973,-0.89531,-1.4819,0.76277,1.8086,1.6044,0.43115,-0.94617,-0.33416,-0.28299,0.96685,-0.66558,-0.86968,0.022986,0.6097,0.32915,0.099619,-0.56357,0.55859,0.22702,-0.002503,-0.181,0.25254,0.27811,-0.10447,-0.12995,-0.027969,0.76267,0.099583,-0.25754,-0.7422,0.30356,0.048573,-0.13,0.07416,0.20166,-0.1044,0.09957,0.63512,0.43109,-0.15566,-0.10447,-0.30851,0.38013,-0.0535,0.2781,-0.4105,-0.46151,0.43109,0.66065,0.63517,-0.89517,-0.99718,1.1708,0.53317,-0.86965,-0.56359,0.17598,0.43113,0.89026,0.43113,-0.76754,-0.71666,0.43109,0.32913,-0.35946,-0.28301,-0.28305,1.0943,0.81359,0.22704,-0.61461,-0.25746,0.15056,-0.38507,0.1251,0.074062,-0.436,-0.66564,0.20159,0.58412,-0.46164,-0.25752,0.17603,0.94129,-0.18087,-0.078923,0.3036,0.91571,0.53313,0.15051,-0.02792,-0.84417,-1.2523,0.099601,0.023103,-0.33399,0.12507,0.91567,0.60967,0.20161,-0.76769,-0.94614,-0.41054,0.40561,0.60964,0.22708,-0.078984,0.55869,0.55868,0.58419,-0.33408,-1.3288,-0.30856,0.68623,0.3547,-0.027969,-0.18101,1.1198,0.17612,0.074038,0.27808,-0.76773,0.22705,0.27814,0.17611,-0.38507,-0.15553,0.40561,0.15057,0.15059,-0.53817,-0.28301,0.43114,0.17609,-0.15549,-0.84417,-0.30849,0.50772,0.73719,0.6351,-0.48708,0.27802,-0.13001,0.38018,0.60976,-0.64011,-0.61463,0.32909,0.40569,0.48215,-0.002552,-0.74214,0.60968,0.22708,-0.25746,-0.25754,-0.2066,0.022986,0.35464,-0.002423,-0.41058,0.27809,0.6862,0.12507,-0.35951,-0.61462,-0.10446,1.2728,0.38019,-0.0535,-1.4054,-0.10447,0.60969,0.81378,0.45664,-0.46157,-0.002454,0.68619,0.3801,-0.69114,-0.9207,-1.1758,0.22707,0.6862,0.58421,0.048585,0.12505,0.45668,0.32908,-0.053421,-0.28305,0.074026,0.43111,0.30359,-0.20646,-0.89513,-0.28298,0.48214,0.40561,0.30356,-0.25753,-0.53804,-0.027974,0.4056,0.1506,-0.43605,-0.13002,0.27803,0.45658,0.81377,-0.33403,-0.33396,-0.00251,0.17611,0.074051,0.22718,-0.35952,0.22706,-0.23209,0.60955,0.15056,0.2271,0.12512,-0.38503,0.023065,-0.053495,0.25259,0.20157,-0.38506,-0.053544,-0.28306,-0.15549,0.38014,0.63524,-0.027944,-0.64007,0.2524,0.30364,0.60975,-0.41053,-0.46156,-0.33412,0.7372,0.17614,0.023133,-0.66561,-0.13005,0.73709,0.94122,0.30364,-0.23205,-0.81862,0.32917,-0.002443,-0.002454,0.099626,-0.10447,0.48208,0.20153,0.023035,-0.46157,-0.25756,-0.10449,0.35461,0.048629,-0.28303,-0.58906,0.27807,0.27808,-0.002497,0.3036,-0.61462,-0.25753,0.27816,1.1198,0.22707,-0.25753,0.02301,-0.30858,-0.43602,0.20157,0.60974,-0.027998,0.38011,-0.30855,0.12507,0.048573,0.55862,-0.027993,-0.48714,-0.078953,-0.15548,0.17609,0.4311,0.25254,-0.58904,-0.99707,-0.23201,0.63514,0.25247,0.12504,0.30361,0.6607,-0.38495,-0.86953,0.022998,-0.25756,-0.38515,0.68623,0.81365,0.17606,-0.002479,0.78827,-0.30853,-0.64006,0.20158,-0.12998,-0.76778,0.048555,0.48218,0.53323,-0.18094,0.32913,0.7883,0.96675,-0.3851,-1.5329,-0.35955,-0.23205,0.12505,-0.10456,-0.94609,0.22712,0.71173,1.0433,0.12514,-0.079033,-0.15551,0.68608,0.81377,-0.20652,-1.5583,-0.3086,0.4311,0.43118,-0.94606,-0.5891,-0.0535,0.40556,0.17604,0.48221,-0.12994,0.35458,0.4311,0.60971,0.4567,-0.35954,0.4056,0.78821,0.12504,-0.74215,-0.76761,0.048482,-0.15548,0.3036,-0.002467,-0.66562,-0.002467,0.76263,0.099448,0.27813,-0.4615,-0.58897,0.22702,0.43108,-0.25745,0.17612,0.60968,0.6097,-0.51263,-0.48717,-0.30856,0.4567,0.81375,0.4567,-0.18099,-0.71659,-0.053458,-0.00254,-0.10458,-0.10448,-0.181,-0.30851,0.30366,0.048573,-0.053476,0.023029,-0.053506,-0.002461,-0.3851,-0.078959,-0.15544,0.099503,0.66068,0.40562,-0.078953,-0.58912,-0.53809,0.12509,1.1198,0.25253,-0.94617,-0.28302,0.20163,-0.43605,-0.078947,0.32913,0.15055,0.60968,0.12503,-0.20652,-0.15554,-0.66566,0.48216,0.45669,-0.23198,-0.053458,0.32912,0.45662,-0.18105,-1.1248,-0.46153,0.48214,0.27809,0.15052,-0.23198,-0.15546,0.40564,0.55866,-0.15552,-0.46157,-0.23201,0.76277,0.25258,-0.86971,-1.0482,-0.41053,0.35468,0.7627,0.55861,0.48214,-1.4818,-0.053549,0.71175,0.32918,0.27814,-0.25752,0.30358,-0.15554,-0.10453,-0.30853,-0.66565,0.25262,0.53314,0.35465,0.023054,-0.5381,-0.232,0.30358,-0.23198,0.30355,0.12504,0.074062,0.048482,-0.3596,0.023078,0.17613,-0.2065,0.20159,0.53316,0.20157,-0.74214,-0.56362,-0.28305,0.48209,0.68623,-0.28287,0.43123,0.76267,0.15049,0.32904,-0.13001,-0.43613,-0.61462,0.048567,-0.12999,-0.6911,-0.28304,0.2271,0.099528,-0.35953,0.074062,-0.078996,0.074087,-0.002479,0.25261,0.38005,0.53316,0.60971,-0.51257,-0.5381,-0.33403,0.6097,0.43113,-0.43604,-0.53807,-0.33405,0.45661,0.66072,0.2526,-0.35959,-0.078966,0.32914,0.17604,-1.0228,-1.2268,0.048536,0.38016,0.94127,0.023054,-0.38508,0.15067,0.71179,0.40569,-0.41057,-0.51267,-0.56365,-0.10457,-0.053464,0.25258,0.15056,-0.28301,0.58419,0.81371,0.12503,0.17614,-0.33397,-0.56364,-0.71672,-0.33404,0.32914,-0.053421,0.2271,0.30361,0.15055,-0.002472,-0.35953,0.15054,0.35456,-0.002491,-0.38508,-0.41051,0.25263,0.76273,-0.25754,-1.0482,-1.0992,0.71172,0.50759,0.15056,0.12503,-0.51257,0.12509,0.73722,0.15059,-0.64012,-0.79311,-0.2065,1.1452,0.023035,-0.30852,-0.41051,-0.053476,0.074038,0.12505,-0.13002,-0.41055,0.099601,0.66075,0.4056,-0.43609,-1.0228,-0.25755,0.7372,0.22715,-0.078935,0.074087,0.45667,1.0178,-0.20655,0.20161,-0.76764,-0.25748,0.048487,-0.28306,0.048487,-0.10446,0.2271,0.22713,-0.51262,-0.18102,-0.46153,0.38013,0.91573,0.6607,0.60971,-1.3288,-1.0227,-0.30857,-0.13006,0.53312,0.20167,0.2527,0.048616,0.12504,0.45664,-0.053549,-0.69122,0.45656,0.09954,0.023035,-0.38497,-0.027944,0.96678,0.20163,-0.15549,-0.97172,-0.28307,0.53316,-0.33406,-0.5636,-0.33406,-0.18098,0.9158,0.20159,0.099515,0.074044,-0.20647,0.2782,0.02301,1.3493,-0.6146,-1.3288,-0.6912,0.073995,0.2272,0.15061,-0.23206,0.45663,-0.10455,0.099619,0.30367,-0.84419,0.43113,0.50769,-0.46153,-0.58913,0.023041,0.7372,0.09954,0.048549,-0.15549,-0.15548,-0.20661,-0.58916,-0.12993,-0.23197,0.66069,0.58417,-0.181,0.074062,-0.12999,-0.66565,-0.18101,0.12504,-0.13003,-0.89515,0.35462,0.66061,0.25262,0.099619,-0.2065,-0.027974,0.53316,0.22715,-0.94617,-0.81868,-0.028036,0.76273,0.43108,-0.20648,-0.35954,0.099577,0.43113,-0.078928,-0.48713,-0.53812,-0.15548,0.50766,0.3036,0.074008,-0.41054,-0.18094,0.50769,0.71177,-0.53819,-1.7624,-0.64011,0.78829,0.99231,-0.18115,-0.41057,-0.25759,0.99225,0.68628,-0.5635,-0.94618,-0.13,0.86472,0.50766,0.22705,-0.41054,-0.56358,0.45665,-0.30855,-0.23199,-0.66565,-0.53815,0.40558,0.17606,-0.078928,-0.43608,0.048536,0.81378,-0.12993,-0.15546,-0.99729,-0.028011,0.99227,0.099632,0.50766,-0.86972,-0.69108,0.68622,0.73725,-0.10452,-0.74221,-0.20648,0.27808,-0.2065,-0.25761,-0.2575,-0.46156,1.0688,0.02309,-0.25753,-0.30856,-0.078941,0.71166,0.2016,-0.13002,-0.38506,-0.8441,0.22705,0.25256,-0.25752,-0.5381,-0.35956,0.58416,0.12509,0.22712,-0.078941,-0.33409,-0.3341,0.023017,0.45666,-0.25753,-0.33404,0.78828,0.89029,0.30364,-0.5891,-0.86971,0.66065,0.048543,-0.46154,-0.35951,0.17609,0.38006,-0.51258,0.12509,-0.84414,-0.9462,0.048536,0.48212,0.2271,-0.15553,0.2781,0.66067,0.71175,-0.027974,-1.2268,-1.3287,0.176,0.81369,0.78824,0.43123,-0.43602,-0.027969,-0.38513,-0.2065,-0.84409,-0.053446,1.2218,0.20155,-0.81871,-0.71665,0.048518,0.73718,0.048525,0.20159,-0.56353,-0.12994,0.91579,-0.23199,-0.35954,-0.74217,0.15053,0.83925,-0.33407,-0.61464,-0.46154,-0.18097,0.96677,0.40566,-0.23203,-0.5381,-0.41054,0.17605,-0.13002,0.15056,-0.76761,-0.64009,0.60968,0.17611,0.5332,-0.38509,-0.46161,-0.41071,-0.15553,-0.38509,0.35469,0.63528,1.2474,-0.10449,-0.15553,-0.51258,-0.30854,0.35461,0.15057,0.22707,-0.28298,-0.61458,-0.15559,-0.2831,0.07402,-0.41052,0.074062,0.81375,-0.2575,0.074038,-0.58904,-0.30853,0.35455,0.074038,0.35464,-0.15553,-0.12995,0.66067,-0.18098,0.048567,-0.41057,-0.48706,0.25257,-0.28303,-0.20648,-0.4871,-0.02798,1.2219,-0.15556,-0.86969,-0.74214,0.023078,0.89029,-0.078984,0.30366,-0.078972,-0.41055,0.35459,0.073977,0.25257,-0.46159,-0.48703,0.40563,-0.15552,-0.053464,-0.56352,-0.078959,0.68616,0.22705,-0.43611,-0.46157,0.099534,0.83925,-0.02792,-0.46152,-0.43606,-0.43608,0.12503,-0.053573,0.86474,-0.18098,-0.84413,0.78827,0.22705,0.099546,-0.56361,0.023072,0.40563,-0.18102,0.15057,-0.25747,-0.10452,0.50767,-0.13002,0.023035,-0.74212,-0.28302,0.68621,0.15055,-0.28309,-1.4309,-0.38509,0.81375,1.0943,0.40565,-0.84412,-0.74214,0.3546,-0.18107,-0.13007,-0.53805,-0.027913,1.1709,1.3494,0.45669,-1.0992,-0.48713,0.30356,-0.10447,-0.30851,-1.2268,-1.6604,0.66069,0.55868,0.35464,-0.38503,-0.027987,0.83924,0.32908,-0.15551,-0.74209,-0.43604,1.0178,0.25252,-0.71656,-0.92061,-0.43604,1.1197,0.048512,0.278,-0.69111,-0.4615,0.89029,-0.28305,-0.33406,-0.53812,-0.38509,-0.46167,1.0178,0.35466,-1.0482,-0.23204,1.5789,0.50774,0.43123,-0.58908,-0.079021,0.68622,0.074026,-0.46165,-0.76766,-1.3798,0.073953,-0.10449,-0.1045,-0.48706,0.04858,0.89024,0.15062,-0.002418,-0.38504,-0.33401,0.6862,0.20166,0.023035,-0.9462,-0.43612,0.43112,-0.46161,-0.027956,0.38013,0.099595,1.0433,-0.4871,-1.2268,-0.92073,0.22712,1.2983,0.15061,0.12504,-0.41054,-0.61458,0.66068,-0.053427,-0.4871,-0.89516,-0.002485,0.91573,0.12507,0.20158,-0.5126,-1.0992,0.22701,0.023078,0.048531,0.023047,0.15057,0.3801,-0.078947,-0.18095,-0.94617,-0.76769,1.0687,0.81373,0.2272,-0.86965,-0.5126,0.073989,0.40565,0.12509,-0.58913,-0.30855,0.55862,0.15059,-0.053446,-0.43599,-0.078996,0.7117,0.15054,-0.13012,-0.71663,-0.66556,0.5842,0.30363,-0.181,-1.2268,-0.79321,0.83922,0.58414,0.099559,-1.1757,-0.35952,1.1963,0.66075,0.1506,-0.89514,-1.1248,0.81369,0.22704,0.73717,-0.84412,-0.81864,0.099546,0.30359,0.66075,-0.56358,-0.4616,0.58411,0.40566,-0.053495,-0.74209,-0.71664,0.78824,0.023047,0.023023,-0.20647,-0.89519,0.048585,0.25255,0.27809,-0.33407,-0.18096,0.76268,0.15055,-0.30854,-0.84417,-0.51258,0.73717,0.099546,-0.23201,-0.79313,-0.002326,0.48218,-0.38514,0.048543,0.048622,-0.181,0.78817,-0.053506,0.023072,-0.81864,-0.078966,1.5024,0.17606,-0.97171,-1.6859,-0.30855,0.83922,0.17607,0.023059,-0.41054,-0.15551,1.0178,-0.002467,0.048549,-1.0483,-0.18093,0.68619,-0.07899,0.099546,-0.35951,-0.3085,0.68616,-0.1045,-0.58917,-0.53804,0.55871,1.2218,0.12502,-0.18102,-0.79316,-0.43604,0.53319,0.20163,-0.283,-1.2778,-0.7167,1.0688,0.78827,0.07402,-0.76767,-0.64012,0.58413,0.32913,0.20167,-0.61453,0.22704,0.78817,-0.027931,-0.69108,-0.99721,-0.79315,0.86468,0.43113,-0.05347,-0.4871,-0.18097,1.2218,0.60961,-0.71666,-1.2777,-0.51254,0.91579,0.66077,0.27814,-0.84416,-0.66572,0.60963,0.50766,0.1251,-0.86969,-0.41052,0.58414,0.38013,0.074093,-0.64009,-0.99723,0.20149,0.2526,-0.078977,0.074087,0.023133,0.48214,0.25256,-0.002443,-0.58907,-0.48705,0.68611,-0.027993,-0.20655,-0.69111,-0.12996,0.58418,0.048536,-0.13004,-0.76764,-0.35951,1.0178,0.50772,0.35456,-0.81863,-0.46155,0.35459,0.15059,-0.5126,-0.81866,-0.6146,0.81368,0.22707,0.09954,-0.053464,-0.41052,0.43112,-0.28305,0.32915,-0.38499,-0.48705,0.71165,0.2526,-0.58905,-0.71665,-0.92063,0.48209,0.6351,0.6861,-0.76761,-0.64007,0.5077,0.023035,-0.18097,0.099534,0.12504,0.50765,-0.18094,-0.69117,-1.4819,-0.13002,1.6554,0.86482,-0.30856,-0.56357,0.12512,1.0432,0.17607,-0.79321,-1.7369,0.023047,1.987,1.0178,0.048555,-0.86967,-1.3033,0.17604,0.15057,0.074111,-0.4871,-0.002461,0.71168,-0.181,-0.38508,-0.89518,-0.4361,0.86469,0.2526,0.074062,-0.84412,-0.61456,0.81374,0.40565,0.38012,-0.58914,-0.13002,1.1963,0.074087,-0.23201,-1.3798,-0.41053,0.76267,0.074069,0.09957,-0.64011,-0.38505,0.58413,0.66073,0.48219,-0.41054,-0.4361,0.81368,0.023041,-0.053513,-0.61457,-0.53808,0.76267,-0.38503,-0.56358,-0.46157,-0.25752,0.86469,0.53312,-0.48706,-0.38504,-0.43599,0.6607,-0.053458,-0.46159,-0.41058,-0.18104,1.2729,0.32915,-0.43612,-1.0738,-0.15551,1.0688,0.43112,0.023059,-0.53806,-0.15549,0.40557,-0.078996,-0.38509,-1.0482,-0.97168,1.1708,0.53325,0.17617,-0.81863,-0.81866,0.55862,0.66062,0.22702,-0.89519,-0.76756,1.0943,0.22712,-0.25751,-0.79314,-0.13001,0.89016,0.25254,-0.23203,-0.25748,-0.61457,0.53314,-0.2065,0.023059,-0.71662,-0.4616,0.94125,0.71173,0.8393,-0.6401,-1.1248,-0.002516,0.022937,0.30366,-0.053446,-0.078972,0.40561,0.27815,0.4312,-0.5126,-0.5381,0.58417,-0.10448,-0.30856,-1.0228,-0.30854,0.94118,0.32911,0.43113,-0.71657,-1.0481,0.6351,0.27806,-0.002467,-0.46152,-0.10446,0.86475,-0.027956,-0.18104,-0.18098,-0.56358,0.30353,-0.46164,-0.002485,-0.30853,0.17609,0.89023,0.15059,0.45667,0.20163,-0.33403,0.15058,-0.61459,0.09954,-0.56364,-0.53807,0.89022,-0.18105,-0.33407,-0.79314,-0.12999,0.9668,0.22711,-0.053537,-0.84413,-0.10454,1.1453,0.32915,-0.12999,-0.2575,-0.71666,0.55868,0.15064,0.099608,-1.2523,-0.74221,0.96669,0.58416,-0.15551,-0.30848,-0.078947,0.7372,-0.10449,0.48219,-0.76763,-0.33404,0.4056,0.25257,0.048555,-0.76769,-0.74213,0.91571,0.22713,-0.002472,-0.79309,-0.028005,0.78824,-0.027998,-0.61461,-0.71667,-0.30851,0.9412,0.22715,0.94127,-0.61455,-0.92068,-0.002521,0.20155,0.25262,-0.23202,-0.078898,0.83922,-0.23206,-0.13001,-0.61463,-0.30852,0.63518,0.1761,-0.10449,-0.74215,-0.053464,0.76269,-0.078996,0.074087,-0.43604,-0.30856,0.86472,0.15059,0.12505,-1.0227,-0.38508,0.71166,0.50763,-0.23197,-1.2013,-0.30849,0.71168,0.38011,0.27803,-0.53804,-0.12996,0.94125,0.66074,-0.002467,-1.4818,-0.94623,0.27806,0.22709,0.66073,0.45671,-0.53809,-0.28314,-0.23205,0.099601,-0.18095,-0.078972,1.2728,0.81373,0.048555,-0.66559,-0.43606,0.30356,-0.43609,-0.28301,-0.6146,-0.33404,0.8392,0.32908,0.17603,-0.69111,-0.53805,0.89026,0.27813,-0.33402,-0.6911,-0.41056,0.94123,0.50765,0.15058,-0.89516,-0.25753,0.9157,0.35461,0.048561,-1.0992,-0.61468,1.0433,0.45667,0.38016,-0.64014,-0.64012,0.89024,0.35462,-0.078947,-0.66558,-0.66561,0.78822,0.58418,0.048549,-1.0483,0.048512,0.68615,0.048518,-0.86967,-0.51257,0.048585,1.2983,0.58419,-0.078947,-0.53806,-0.20652,0.83921,-0.10453,-0.38499,-0.74212,-0.13002,0.50759,0.22705,0.4056,-0.84418,-0.53806,1.2218,0.89032,-0.078947,-1.1502,-0.86967,0.63515,0.76275,0.32907,-0.64012,-0.20655,0.50765,0.099546,-0.002454,-0.66558,-0.28304,0.81371,0.022992,-0.2575,-0.46164,-0.4615,0.83925,0.20161,0.02301,-0.48708,-0.078928,1.4514,-0.15556,-0.74226,-0.64008,0.023084,1.3239,0.50765,-0.053421,-1.1247,-0.48709,0.66065,0.2526,-0.20647,-0.33409,-0.33402,0.94126,0.27813,0.099552,-0.48708,-0.58913,0.60967,-0.23206,0.048561,-0.181,-0.4106,0.83925,-0.053439,0.074087,-0.35955,-0.58907,1.0178,0.53319,-0.48714,-0.81864,-0.71665,1.0688,0.53317,-0.078917,-0.38504,-0.053446,0.99228,0.3036,-0.58914,-1.0993,-0.56356,0.86472,0.3801,0.074044,-0.46153,-0.12999,0.91572,0.048543,-0.25755,-0.74216,-0.15546,1.1963,0.7372,0.074087,-0.79311,-1.3032,0.32903,0.4821,0.15056,-0.13004,-0.92065,1.0178,0.25263,-0.12996,-0.53807,-0.18103,0.94119,0.50765,-0.15557,-0.69113,-0.28306,0.99226,0.45669,-0.41055,-0.79313,-0.48708,0.99225,0.20159,-0.61463,-0.84415,0.22713,0.91573,-0.20654,-0.23197,-0.53809,0.099564,1.1198,0.17609,0.073995,-0.00251,-0.48706,-0.053446,0.048549,0.15061,-0.58909,-0.078959,0.89023,0.074026,-0.002503,-0.64011,-0.38506,0.68619,0.53317,0.1251,-0.43603,-0.38506,0.45662,0.27808,0.023047,-0.66558,-0.078917,0.45662,-0.25757,-0.10453,-0.9207,-0.61461,1.1453,0.2781,0.20158,-0.20647,0.43116,0.83923,-0.002412,0.30361,-0.64013,-0.38508,0.43109,0.40561,-0.33407,-0.94617,-1.0227,1.2218,0.6862,0.074111,-0.66565,-0.078977,0.83925,-0.61469,-0.43609,-0.51254,0.20159,1.2983,0.66074,0.3036,-0.84414,-0.35951,-0.053537,-0.028005,-0.10447,-0.30853,0.48213,0.94121,0.15058,-0.078984,-0.48706,-0.56361,0.073971,-0.33405,-0.1555,0.12509,-0.334,1.1198,0.81375,0.1506,-0.38505,-0.28307,0.60969,0.22703,0.022992,-1.0482,-0.58903,0.32907,0.48218,0.40566,-1.2523,-0.53807,1.2218,0.89023,0.38009,-0.79314,-0.38501,1.1198,0.15057,-0.25753,-0.69112,-0.66569,0.32908,0.78821,0.45662,-0.51255,-0.15551,0.7117,0.40565,-0.12998,-0.64006,-0.15549,0.83921,-0.23207,-0.23209,-0.51253,-0.181,0.66067,0.25257,-0.12996,-0.7166,-0.002472,0.58414,0.58422,-0.079021,-0.84421,-0.61463,0.76268,0.66072,0.66075,-0.48703,-0.078972,0.99229,-0.0535,-0.33403,-0.35954,-0.74217,0.5841,0.66069,0.25262,-0.41057,-0.12998,0.63516,0.22706,-0.12999,-0.71664,-0.027962,0.7882,0.12502,-0.053409,-0.43604,-0.43606,0.43107,-0.078996,0.32905,-0.15548,0.023065,0.9923,0.09957,0.27816,-0.23196,-0.81873,-0.53821,0.048543,0.76271,-0.027925,-0.18104,0.40565,0.40563,-0.053439,-0.92065,-0.23201,1.2728,0.17602,-0.25749,-0.58909,-0.20649,0.96678,0.074044,-0.64011,-0.84421,0.22712,1.0688,0.023023,-0.053525,0.2271,0.023084,0.50769,-0.18098,-0.43608,-0.56357,-0.43604,1.0433,0.27808,0.27801,-0.94626,-0.1045,1.0943,0.0741,0.048549,-0.538,-0.15546,0.53317,-0.23208,-0.5382,-0.35953,0.25262,0.99228,0.91576,0.43119,-0.89518,-0.71668,0.58413,0.2271,-0.053506,-0.51257,-0.002448,0.81376,0.25258,-0.30853,-1.0482,-0.10454,0.66069,0.20158,0.43116,-0.232,0.048561,0.91578,-0.10449,0.099559,-0.51258,-0.35961,0.50765,-0.079026,0.023029,-0.1555,-0.12995,0.86477,0.074026,-0.18096,-0.5126,-0.48712,0.81371,0.15053,-0.002472,-0.51253,-0.027969,0.76273,-0.027944,-0.33402,-0.46158,-0.23203,0.94121,0.30356,0.20156,-0.15549,-0.078935,0.63518,0.20161,-0.33399,-0.99718,-0.81865,0.30358,0.35462,0.15054,0.40563,-0.078959,1.1963,0.27809,-0.28301,-0.92064,-0.18102,0.78812,0.30361,0.074051,-0.38507,0.074062,0.48217,0.074075,-0.385,-0.56358,-0.027969,0.63517,0.2781,-0.35953,-0.46158,0.15057,1.1709,-0.33412,-0.53812,-0.76772,0.17607,0.94131,0.73722,0.2271,-0.30847,0.40571,0.3291,-0.079051,-0.23203,-0.56359,-0.18101,0.48211,0.17611,0.099485,-0.51254,-0.25746,0.53318,0.27813,-0.078972,-0.46161,-0.13002,0.53312,-0.10448,-0.028005,0.12503,0.30357,0.81376,0.1251,-0.69113,-1.2267,-0.079002,1.2218,0.35463,-0.053513,-0.181,-0.10447,0.32904,-0.12999,-0.41055,-0.385,0.35462,0.96678,0.43119,-0.23205,-0.92068,-0.38502,0.7627,0.40558,0.50765,-0.66558,-0.71666,0.17606,0.60971,0.2525,-0.66558,-0.23198,0.76278,-0.002472,-0.181,-0.79317,-0.30856,0.99221,0.22707,0.32915,-0.12996,0.25261,0.48213,0.40565,0.023005,-0.84416,-0.38503,0.50765,-0.12999,-0.20655,-0.18094,-0.027962,1.0943,0.48214,0.15058,-0.8442,-0.38505,0.35458,0.12505,-0.15552,-0.30852,-0.027969,0.27808,0.25259,-0.12997,-0.69111,-0.4106,0.76266,0.66069,0.50764,0.099588,-0.84416,0.50763,0.55861,0.023121,-0.7931,-0.15551,0.76273,0.6352,-0.35959,-0.5381,-0.13,0.38012,0.09954,0.20162,-0.74221,-0.20653,0.68627,0.45664,0.25261,-0.48706,-0.20649,0.58418,0.58412,0.2271,-0.74218,-0.41056,0.66065,0.09954,0.074008,-0.43604,-0.30854,0.50771,0.50767,0.07402,-0.23199,-0.15549,0.50768,0.22706,0.48204,-0.28299,-0.64011,0.17608,0.27812,0.023072,-0.12998,-0.61459,0.68613,0.63518,0.099588,-0.51254,-0.41059,0.45662,0.43108,-0.15547,-0.23202,-0.23201,0.43112,0.45664,-0.30854,-0.41055,-0.3341,0.50763,0.7117,0.3037,-0.20649,-0.1555,0.074013,-0.35959,-0.41056,-0.15553,0.023072,0.94127,0.43114,0.20163,-0.66553,-0.28305,0.71164,0.20154,-0.15557,-0.64012,-0.30854,0.58415,0.48219,0.32911,-0.30848,-0.20653,0.20159,0.38017,-0.25756,-0.53814,-0.30856,0.58414,0.48218,0.25263,-0.58907,-0.30849,0.15055,0.48215,-0.4616,-0.4106,-0.33406,0.40559,0.99237,0.40566,-0.46156,-0.15554,1.1453,0.30356,-0.35954,-0.6401,-0.53806,0.22719,0.17601,-0.15557,0.0485,0.15054,0.40566,0.12507,0.074093,-0.38505,-0.38499,0.66064,0.66067,0.60967,-0.66561,-0.9972,-0.00254,0.023047,0.048555,0.17609,0.38013,0.30363,0.48218,-0.053476,-0.94622,-0.25758,0.55867,0.27811,0.099552,-0.02792,0.17612,0.68618,0.68621,-0.51259,-0.5381,-0.43609,0.32906,-0.002503,-0.30856,-0.334,-0.15546,0.94124,0.71166,-0.02792,-0.385,-0.20652,0.2526,0.25255,0.048506,-0.48706,-0.56355,0.2781,0.86474,0.074057,-0.2065,-0.41055,0.66062,-0.079033,-0.56367,-0.181,0.32921,0.89032,0.66071,-0.41056,-0.71668,-0.56362,0.55867,0.99227,0.43115,0.048567,-0.28301,0.27808,0.20149,-0.64012,-0.71662,-0.23201,0.22712,0.55864,-0.053482,-0.10446,-0.002472,0.25261,0.25255,-0.002479,-0.30855,-0.41058,0.20159,0.63524,0.22707,0.023054,-0.18104,-0.28305,0.17607,-0.078953,-0.027938,0.074057,0.40561,0.12504,0.20158,-0.30853,-0.10446,0.12509,0.4056,-0.002418,-0.94621,0.023054,0.55863,0.22706,-0.027969,-0.20648,-0.027938,0.20155,0.35455,-0.181,-0.2575,0.25259,0.76267,0.71168,-0.027987,-0.30852,-0.58906,0.1506,0.048531,0.12508,-0.002467,-0.13003,-0.10449,0.074081,0.35462,-0.053519,0.27808,0.023041,0.40564,-0.33406,-0.6656,-0.12997,0.6352,0.50769,0.66069,-0.28303,-0.4871,0.3291,0.048469,-0.10449,0.1761,-0.232,0.35461,0.50768,0.20152,-0.5891,-0.76762,0.074038,0.048555,0.15056,-0.38502,-0.12995,0.5587,0.48213,-0.053488,0.048482,0.22708,0.43115,-0.027969,-0.35951,-0.30853,-0.41061,0.3036,0.58422,-0.027969,-0.4871,0.15056,0.60969,0.58416,-0.41055,-0.81868,-0.053439,0.6352,0.66071,0.048543,-0.33404,-0.053451,0.20158,0.15057,-0.28303,-0.46156,-0.56364,0.55862,0.30357,-0.079002,-0.12996,-0.33398,0.43112,0.48219,0.22706,-0.0535,-0.30855,-0.38506,0.17605,0.25262,0.048567,-0.28304,-0.002454,0.2781,0.40563,0.023072,-0.078966,0.66065,-0.66568,-0.25754,0.20161,0.023096,0.32913,0.27809,-0.15553,-0.25749,0.099564,0.074044,-0.18107,-0.10459,-0.18103,-0.38503,0.3291,0.96676,0.12516,-0.38499,-0.46155,0.30358,0.5841,0.32908,-0.35945,-0.6146,-0.20653,0.96669,-0.002479,-0.71663,-0.71665,0.023047,0.9668,0.45669,-0.053531,-0.46162,0.15054,1.0178,-0.002387,-0.43603,-0.41058,0.27804,0.30358,0.15055,0.023059,-0.053421,0.2016,0.43117,0.15059,-0.28303,-0.56359,-0.51263,0.12502,-0.10459,-0.18101,0.074038,0.40571,0.66075,-0.18101,-0.078917,-0.41054,0.25254,0.25254,-0.079002,0.15063,-0.28305,0.35458,0.38012,-0.30854,-1.3543,-0.3596,1.0433,0.73717,0.07402,0.35467,-0.2575,0.12507,-0.027956,0.12512,-0.027931,-0.13001,0.022986,-0.002485,-0.10454,-0.078972,-0.20648,0.048518,0.38015,0.17611,-0.30855,-0.15549,0.27811,0.43111,0.15052,-0.5381,-0.30847,0.53318,0.30358,-0.61458,-0.71666,0.074013,0.53311,1.0178,-0.002443,-0.15551,-1.0227,-0.28305,0.96676,0.40569,0.40567,-0.078947,0.15053,0.074026,-0.18103,-0.079039,-0.33407,-0.181,0.32913,-0.64005,-0.02798,-0.283,0.32904,0.17603,0.074013,-0.002472,-0.283,0.81376,0.66075,-0.10447,-0.43606,-0.027998,0.22707,-0.15551
0.25252,-0.10451,-0.078966,0.20163,0.074069,0.099528,-0.35957,-0.2575,0.12507,-0.053464,0.15051,-0.12999,-0.10449,0.15063,0.074069,0.22705,-0.18101,-0.28301,0.30364,-0.10448,0.023029,0.17602,-0.10448,-0.12995,-0.053464,0.15051,-0.002546,-0.33401,0.15059,0.12504,0.22704,0.099497,0.048573,0.40566,-0.81849,-0.10448,-0.15554,-0.002485,0.099564,0.048536,0.073989,-0.053495,-0.053476,0.32913,0.048555,0.023029,-0.35953,-0.078996,0.15059,-0.12998,0.15051,-0.027974,-0.053482,0.22715,-0.053458,-0.002467,-0.18104,-0.078996,0.099601,0.074038,0.15054,-0.20653,-0.027962,0.38013,-0.28295,0.048512,-0.33405,-0.1555,0.099583,0.12504,0.20152,-0.10452,0.074044,0.17612,0.1761,-0.002497,-0.33404,-0.23204,0.074087,-0.18101,0.048518,-0.28304,-0.027956,0.17612,0.074081,0.048518,-0.13002,-0.002485,-0.002405,0.25255,0.12504,0.023023,-0.027962,0.22715,-0.20648,0.17604,-0.25757,-0.078984,0.074081,-0.30851,0.12502,-0.25753,-0.002479,0.048592,0.048573,-0.10449,-0.25754,-0.0535,0.12509,0.074038,0.099515,0.02301,-0.027969,0.22716,0.17609,0.12502,-0.74209,-0.12999,0.30361,-0.13001,0.15056,-0.002491,-0.33405,-0.15547,-0.078947,0.20153,-0.35953,-0.002461,0.20165,0.02301,-0.13003,-0.10453,-0.1045,0.074111,0.15059,0.15054,-0.41054,-0.181,0.1506,0.099521,0.099503,-0.15552,-0.18099,0.048616,-0.078947,0.15055,-0.25754,-0.18101,0.20161,-0.053482,0.048518,-0.028023,0.25257,0.35467,-0.02795,0.12508,-0.64014,-0.33401,-0.053446,-0.15551,0.15052,-0.4106,-0.053506,0.20164,0.35466,0.17604,0.048555,0.023054,0.25267,-0.079014,-0.18109,-0.38513,-0.48708,0.074124,0.22714,0.3291,-0.79319,-0.02795,0.17614,0.25261,0.22705,-0.48714,-0.46161,0.023084,-0.027974,0.099546,0.074062,-0.10447,0.15061,0.25263,0.12504,-0.30854,-0.13002,0.35463,-0.10448,-0.15557,-0.8442,-0.89518,0.32916,0.38014,0.30355,-0.5891,0.32913,0.38016,0.68624,0.15056,-0.25746,-0.64012,-0.053378,0.0485,-0.18106,-0.25759,-0.20656,0.25263,-0.078953,-0.078984,-0.079008,-0.15552,0.68626,0.074069,0.074033,-0.30855,-0.20653,0.048598,0.32918,0.02301,-0.89519,-0.89522,0.25266,0.99226,-0.15558,-0.51267,-0.48708,0.81385,0.53323,0.68622,-0.4361,-0.6656,-1.1758,-0.66565,0.074013,0.43118,0.45662,0.8138,0.9668,0.91576,-0.8187,-0.81868,0.3036,0.1251,-1.2268,-1.3288,-0.23212,-0.20651,0.58418,0.86478,-0.51256,-0.97161,-0.053402,0.25258,0.45654,0.73719,1.4769,0.27819,-1.1758,-0.89527,-0.33409,-0.23198,0.40565,-0.51252,0.96674,0.3546,0.15062,0.55879,0.04858,-1.0739,-1.5074,-0.89518,0.76283,1.1198,-0.002454,-0.18098,-0.181,0.099693,-0.6656,-0.23202,0.3546,-0.64015,0.048555,-0.028085,0.58417,-0.4361,-0.078941,0.63526,0.27818,0.20152,0.12507,-0.23202,-0.7166,-0.97176,-0.053525,-0.10445,0.32914,0.4056,0.35463,0.76272,-0.30848,-0.12999,-0.12991,-0.99722,-0.3596,0.43115,-0.18101,0.35472,-0.18111,-0.38513,-0.46164,-0.33395,0.27812,1.1708,1.2728,-0.28313,-0.66568,-0.20641,-0.63999,0.45676,-0.46164,0.12496,-0.20643,-0.078959,0.48209,-0.18105,-0.66562,-0.20646,-0.35945,0.45657,-0.25759,0.71168,0.1762,-0.385,-0.41066,-1.2269,0.55867,1.2474,0.60974,0.63521,-1.8135,-2.1706,-0.58904,0.17603,0.86474,1.0178,0.89028,1.018,-0.38477,0.58421,-0.58924,-1.2779,-0.43613,-0.079026,0.68603,-0.66569,-0.10459,0.35468,-0.18095,0.43118,0.5587,-0.38499,-1.6093,-1.4562,1.1198,0.048482,0.35446,0.94129,0.73731,0.60969,-0.56361,-2.0431,-1.1502,0.43118,0.53314,-1.3034,0.02301,1.4515,1.0688,0.20155,-0.35946,0.50767,0.43126,-0.48702,0.38005,-0.66575,-0.71668,0.45669,-0.28299,-0.028072,-0.41063,-1.1503,-0.66564,-0.12995,0.074106,0.81383,0.76272,0.20176,-0.12998,0.32904,-1.2269,-0.64012,0.91575,1.3495,-0.181,-0.35966,0.099515,0.15067,-0.41048,-0.35959,-0.7677,-1.0481,0.58424,0.89017,-0.079148,-0.56354,-0.43612,0.58428,0.023078,0.50763,-0.71675,-0.41056,0.66087,-0.053513,-1.0484,-0.5381,-0.15545,1.3494,1.5024,0.25264,-1.6094,-1.5584,0.50771,0.76273,0.43117,-0.41069,-0.69122,0.22722,-0.6145,0.55863,-0.51266,-0.23198,0.58434,1.0177,-0.23211,-0.15545,0.023047,0.43117,-0.7932,0.35456,-0.15551,-0.79318,-0.30855,-0.10443,0.2781,-0.10453,0.50769,-0.66561,-0.28303,0.227,-0.053488,-0.97158,-0.027882,0.86475,0.45656,-0.053549,0.27804,-0.027931,-0.05347,-0.028029,-0.99731,0.22713,0.73733,0.68627,0.35462,-0.86964,-0.53813,0.71183,-0.69107,-0.20661,-1.329,0.048463,0.68629,0.20163,0.38013,-0.25746,0.20163,-1.0738,-0.33401,0.73718,-0.51268,-0.23208,-0.61635,0.22521,1.3493,0.22709,0.27815,-0.12995,0.2271,-0.41064,-0.38511,-0.38495,-0.18093,-0.05347,0.4821,0.81373,-0.13004,-1.3288,-2.0175,0.76269,0.94128,0.48217,0.15063,0.25259,1.1198,-0.74211,-0.79327,-0.48708,-0.48704,0.71173,0.43122,0.66077,-0.76767,-1.3544,0.63512,0.17607,-0.35942,-0.33401,0.12509,0.76271,0.63518,1.0178,-0.89522,-1.482,-0.33421,0.22706,0.32924,-0.69104,-0.30849,0.15054,0.68621,0.074228,-0.10447,-0.66572,0.7116,0.60967,0.22712,-0.69115,0.048549,0.53307,-0.002374,-0.5636,-1.2268,-1.1502,-0.18103,0.27805,0.91571,0.43121,-0.33397,0.55869,0.43113,-0.51256,-1.2013,-0.43616,0.89028,-0.28301,0.60968,0.099632,-0.76763,0.94129,0.35456,-0.48707,-1.0227,-0.81866,0.66067,0.27804,0.48218,-0.48705,-0.23198,1.1707,0.38011,-0.33396,-1.4053,-0.028029,0.73712,0.25255,-0.12999,-0.38495,0.25269,0.66067,-0.4106,-0.078996,-0.97163,0.43107,1.0943,-0.538,0.12503,-0.66565,-0.53812,0.63512,0.2016,-0.56359,-0.79319,0.22711,1.5279,-0.61455,-0.15548,0.17612,-0.53809,0.53312,0.60966,-0.12997,-0.51251,-0.8442,0.45657,-0.86972,-0.20653,-0.13002,0.5842,1.5534,0.60971,-0.89518,-0.92066,-0.66564,0.71176,-0.3341,-0.028018,-0.18103,-0.30847,-0.10441,-0.15556,-0.3851,0.40563,-0.33409,0.43113,0.55867,0.048585,-0.41057,0.074167,1.1708,-0.25751,-0.35954,-0.89515,-0.23198,0.66065,0.25259,-0.61472,-0.71663,-1.0483,0.76268,0.50768,0.45672,-0.35953,-0.1045,0.50771,0.35467,-0.15553,-1.0738,-0.18104,0.35464,-0.027974,0.12513,-0.99724,-0.4871,1.4514,0.32912,-0.84417,-0.15544,-0.23202,0.55866,0.48214,-0.02795,-1.3033,-1.0227,-0.10452,-0.74221,0.7117,0.58423,0.66083,1.3494,0.45676,-0.30858,-0.56367,-0.51255,-0.18114,0.099564,-0.46157,-1.1758,0.25256,0.09957,0.12512,-0.30843,-0.48705,0.20158,-0.10456,-0.028042,0.30356,-0.94616,-0.33399,1.2473,0.43118,1.1964,-0.12994,-1.2268,-1.2269,0.63511,0.55876,-0.79307,-0.69106,1.1963,1.2474,-0.61469,-1.2013,-0.48705,0.91574,-0.027907,-0.30857,-0.46157,-0.30856,0.86472,-0.027969,0.12512,-0.58912,-0.79309,0.15046,-0.33425,0.17606,-0.63998,0.4567,1.6045,0.76275,-0.30859,-1.1247,-0.38508,0.55858,-0.1045,0.35464,0.074051,-0.25745,0.04858,-0.51269,0.55864,-0.56358,0.074081,0.3036,-0.28307,-0.6911,-0.38505,0.30359,1.1708,0.22713,-0.027944,0.12507,-0.58919,0.048653,-0.053562,-0.94628,-1.2268,0.73725,1.1453,0.27809,-0.027913,0.048555,-0.74214,0.66069,0.30361,-0.15554,-0.30855,-0.078959,0.94129,-0.46153,-0.64004,-0.79322,0.022901,1.0433,0.15058,-0.66564,-1.2013,-0.38502,1.0689,1.1964,0.45665,-1.4308,-1.2268,1.1708,0.94124,0.1251,-1.0482,0.15061,0.6352,0.17606,0.30362,-1.3288,-0.81859,0.81371,0.50762,0.074008,-0.41054,-0.46153,0.81375,0.68613,-0.20653,-0.71673,-0.2575,0.99224,-0.51256,-0.97171,-0.23196,0.04861,0.73723,0.023017,-0.56356,-0.079021,0.048549,0.91572,-1.6094,-0.76768,0.17608,0.99226,1.2474,0.6863,-0.41058,-0.94617,-0.69121,0.66065,0.35462,0.048561,-0.74211,-0.46154,0.76267,0.099564,-0.38505,-1.1247,-0.41061,1.3749,-0.10449,-0.027962,-0.84417,-0.35964,1.2473,0.60976,-0.25748,-1.0227,-0.002479,0.89027,0.63522,0.20156,-1.941,-1.0993,1.1454,0.78825,0.22717,-0.33399,-0.38503,0.27801,0.099497,0.074013,-0.38506,-0.12996,0.68622,0.15056,-0.46156,-1.1502,-0.43609,0.8647,0.02301,-0.10453,-0.12998,0.048629,0.048604,0.25258,0.17604,-0.74213,-0.99713,1.1708,1.0432,0.22708,-0.64011,-0.53803,0.63517,0.12507,0.38011,-0.92067,-0.12996,0.4056,-0.51263,-0.84423,-0.7421,0.023084,1.7576,0.2781,-0.12999,-1.4308,0.48211,1.3748,0.20154,0.43113,-1.3798,-1.0992,0.09951,0.55867,0.89035,-0.10445,-0.43609,-0.027944,0.023114,0.73715,-0.56362,-0.334,0.20158,-0.35951,-0.28308,0.125,-0.56358,0.60971,-0.46167,0.27799,-0.10447,-0.33395,0.50768,-0.51257,0.8649,0.58429,-0.20652,-0.028103,-1.5074,-0.48712,0.30363,0.8137,0.17601,-0.76765,-0.053451,-0.002363,0.15051,1.426,0.15055,0.074051,-1.4051,-0.002374,1.6299,0.12502,0.048427,-0.84424,-0.86964,-0.027931,0.17609,-0.89502,-1.7625,-0.30868,1.5533,0.81387,0.38011,-0.51263,0.50768,1.3239,-0.66564,-1.9411,0.81384,-0.18101,-0.002546,0.76286,0.91588,-0.69121,-0.13008,0.48217,0.35464,0.50763,-0.69112,-1.1246,0.048629,0.35459,0.022889,-0.33408,-0.66558,0.63518,0.63517,-0.56366,-1.3033,-0.97169,1.7319,0.83923,-0.10437,-0.89509,-0.078959,0.83918,-0.43615,-0.028078,0.7373,0.099583,-0.053439,-0.76766,0.38014,0.25264,-0.28303,0.86474,0.63514,0.35462,-0.94619,-1.0482,0.15048,0.32909,-0.28298,-0.66556,-0.28306,0.55866,0.20163,0.32908,-0.002485,-0.81866,0.35457,-0.078941,0.76273,-0.18101,0.22707,0.22705,0.17614,-0.53811,0.09957,-0.43609,0.30359,0.023023,-0.43607,-0.15536,0.023084,0.53306,0.30356,-0.053433,-0.43604,-0.002374,1.0177,0.50766,-0.15554,-0.8441,-0.81866,0.45657,0.099473,-0.58923,-0.66563,-0.18093,0.96682,0.58425,0.35468,-0.8697,-0.10447,1.2985,0.2015,-0.92074,-1.6859,-0.35959,1.8595,1.3239,-0.18095,-0.28298,-1.3033,0.35463,-0.002516,-0.20653,-0.2065,-0.15547,0.94128,0.81378,-0.41055,-0.64008,-1.1757,0.17597,0.35461,0.45661,-0.1045,-0.053464,0.76268,0.30363,-0.46152,-0.92062,-0.385,0.66065,0.50754,0.17595,-1.5838,0.023133,0.55863,0.66069,0.9668,-0.64008,-0.33407,0.58415,0.20158,-0.33404,-0.66558,-0.10449,0.66068,-0.58913,0.66078,-0.71671,-0.027974,0.25257,-0.18097,0.45651,-0.18101,-0.20643,1.0688,0.50758,-0.48713,-1.4308,-0.53809,0.55861,-0.027871,0.25262,-0.18099,0.35456,1.4515,0.048622,-0.6656,-1.4818,-1.0483,0.76266,0.83923,0.5587,-0.69109,-0.66563,1.0178,-0.25759,0.58425,-0.35954,-0.13004,0.89021,0.048561,-0.43604,-0.6656,-0.33398,1.0942,0.32914,0.30363,-0.58914,-1.0994,0.40562,0.099546,-0.12998,-0.38491,0.50765,1.1963,0.50766,0.40566,-0.81867,-0.41061,-0.71677,-0.33407,0.17609,-0.053433,0.22715,1.2473,-0.56365,-0.28301,-0.35952,-0.002448,1.2218,-0.15553,-0.1555,-0.002443,-0.41057,0.66067,0.15057,-0.35957,-0.76768,0.023023,0.48213,0.30361,-0.053506,-0.79312,-0.18098,1.0434,0.63518,-0.53808,0.023065,-0.43612,0.71157,-0.35959,-0.10453,-0.41054,0.22715,0.43117,0.68621,0.30361,-0.71662,-0.66564,0.58412,0.58424,-0.38505,-1.0227,-0.46162,0.94123,0.63509,-0.15545,-0.002418,-0.79315,0.78816,-0.43602,0.40562,0.023059,-0.25756,0.45669,0.22707,0.2781,-0.58907,-0.6146,0.73719,0.68621,-0.23201,-0.7166,-0.25761,0.60967,0.099521,-0.35954,0.12507,0.22716,0.53319,-0.97171,0.73726,-0.43605,-0.51261,0.55864,1.1197,-0.027907,-0.94619,-0.20642,1.0177,0.22706,-0.053513,-0.71661,-0.28302,0.78818,0.25259,-0.56361,-1.0737,0.09951,1.1198,-0.053427,-0.15547,-0.56358,-0.002454,0.3036,0.074087,0.58425,-1.3543,-0.6147,1.6044,-0.20655,0.7372,0.20166,-0.38503,0.73725,0.15057,-0.053476,-0.23202,-0.15555,-0.23205,-0.6657,-0.18101,-0.15548,0.023078,0.81379,0.55864,0.20161,-0.86963,-0.23202,0.58409,0.099583,0.48206,-0.53813,-0.69108,0.12508,0.5587,0.78827,-0.28302,-0.69113,0.73718,0.55866,0.074008,-1.0483,-0.078972,0.48223,0.43116,1.0178,-1.2778,-0.61463,0.58413,0.17609,0.35461,-0.23197,-0.23201,1.0178,0.48215,-0.027987,-0.51271,-0.71668,0.22714,-0.3595,0.048525,-0.48705,0.099583,0.32898,-0.079033,0.32919,-0.002418,-0.027969,0.9158,0.63518,-0.61462,-1.2267,-0.28304,0.4056,0.58418,0.099626,-0.61456,0.30361,1.4003,0.38006,-1.3289,-1.839,0.1251,1.7065,0.71181,0.50769,-0.41053,-0.41059,0.81376,-0.10452,-0.92073,-0.46164,-0.078966,0.58419,0.35464,0.074093,-0.38502,-0.002565,1.3239,-0.20653,-0.48717,-0.94627,0.12512,-0.053378,0.048536,0.53315,0.3037,0.20159,0.9923,0.71178,-1.2523,-1.6604,-0.71666,1.2984,0.32909,0.22711,0.53323,0.099521,0.66061,-0.48713,-0.41058,-0.38506,-0.15546,0.32915,0.30362,0.074075,-0.35954,-0.10449,1.0688,-0.61465,0.022986,-0.35952,0.074038,0.81376,0.38015,0.048561,0.099515,-0.23207,0.3291,0.25259,-0.2576,-0.89513,0.25275,0.3546,-0.48712,0.58422,-0.35954,-0.94623,0.32899,1.0178,-0.18101,0.40572,1.0689,1.0433,-0.13001,-1.0993,-1.3798,-1.0228,0.227,0.6607,0.50766,0.35467,0.71176,0.58411,0.32917,0.099613,-0.76761,-0.74214,0.60959,0.048549,-0.07907,-0.89512,-0.027969,0.99217,-0.20653,-0.20649,-0.15553,0.53328,0.48226,0.91583,0.55853,-0.97183,-0.92074,1.732,0.30368,-0.58905,-0.28296,-0.81876,-1.431,-0.15562,0.63518,0.7884,1.0944,1.7064,0.96689,0.25265,-0.74211,-0.41062,-0.10456,-0.86975,-0.64019,-0.69113,-0.41065,0.55865,-0.23198,-0.5125,-0.33399,0.20153,1.1963,0.78825,-0.12999,-0.41052,-0.30851,1.5024,1.6809,-0.76769,-1.3797,-0.028029,0.38009,0.12504,0.53316,-0.15543,0.27812,0.83927,0.60965,-0.66565,-0.99712,-0.053476,-0.053427,-0.66567,0.073984,0.074008,-0.30862,0.53311,0.55871,0.22717,-0.10443,-0.3851,0.68624,0.58409,-0.002534,-0.66558,0.099619,0.17606,0.25261,0.09965,-0.99721,-0.28303,0.83916,1.4004,-0.10449,-0.7676,0.074062,1.0432,0.15056,0.20163,-0.46154,-0.20651,0.25258,-0.18104,-0.38508,-0.74214,-0.13001,0.78819,0.15057,0.048543,-0.28299,0.074038,0.27803,-0.20648,-0.20655,0.17619,0.99224,0.27804,-0.76771,0.3292,0.074111,-0.25753,0.32907,0.22707,0.048536,0.32914,0.35459,0.73721,-0.30854,-0.56359,-0.61455,-0.43606,0.58414,0.32906,0.09954,-0.64012,-0.69118,0.12502,-0.10453,0.68628,-0.61457,0.023005,0.91576,1.2218,0.5587,-0.33404,-0.58908,0.43108,0.20158,-0.12992,-0.56355,-0.18099,0.68616,-0.002448,-0.18111,-0.23217,-1.0992,0.60975,0.60972,0.40569,-0.25749,-0.51264,1.2218,0.17605,-0.4361,0.1506,-0.76769,0.43113,1.3749,0.35466,-0.71661,-1.0228,0.71165,0.43116,-0.20651,-0.48707,-0.23199,0.4822,0.6096,0.27812,-0.53807,-0.48701,1.1962,0.78808,-0.41062,-1.3032,-0.61455,0.68629,0.94133,-0.027901,0.099521,0.023047,-0.56369,-1.0739,-0.002472,1.0178,1.3238,1.477,0.86486,-0.002461,-0.84416,-0.43609,0.63526,-0.28307,-0.74223,-0.30864,-0.38503,-0.078892,0.32913,0.40563,-0.7167,0.074038,-0.18103,0.50757,0.35454,-0.002467,0.074204,-0.28306,0.12513,0.76275,-0.58911,-0.30859,-0.66578,0.76272,1.426,-0.18092,-0.53803,1.1198,0.15061,-0.20662,-0.5891,-0.053537,0.91568,0.32907,-0.027969,-0.3595,-0.58908,-0.002436,0.22705,-0.05347,-0.51257,-0.5636,0.45661,0.2526,0.38007,0.38017,0.32918,-0.41068,-0.56368,0.25267,-0.078917,-0.3086,0.50763,0.83927,0.8138,-0.053525,-0.07899,0.58422,0.27814,-0.43604,-0.94622,-0.61463,0.38013,-0.002467,-0.20657,-0.20653,0.35459,0.73722,0.78821,-0.053433,-0.053439,-0.51264,-0.35959,-0.25751,-0.002485,0.074111,0.9667,0.25262,0.17613,-0.15548,-0.28303,-0.078947,-0.20659,0.22707,-0.23197,-0.13004,0.81378,0.43115,-0.053513,-1.1248,-0.25754,0.22712,0.99229,1.0433,0.12507,-0.13,-0.38506,-0.028018,0.074051,0.27813,-0.51255,-0.30855,0.7372,-0.35964,-0.002528,0.074062,-0.35951,-0.18102,-0.15548,-0.053439,0.20157,-0.053464,0.5332,0.68613,0.27808,-0.69107,-0.28301,0.63522,0.68624,-0.30856,-0.71663,-0.48709,0.45659,0.58413,-0.13002,-0.89522,-0.027956,0.73724,0.76275,-1.0992,-0.97172,0.023029,1.0433,0.96676,0.40561,-0.25751,-0.35953,0.023023,0.02301,0.023047,-0.20653,-0.41055,0.074069,0.63521,-0.41061,-0.25757,0.27804,0.099546,0.48219,0.09965,-0.97164,-0.3851,0.099497,1.2983,-0.053513,-0.334,0.25265,0.3291,-0.33409,-0.46156,-0.1555,0.074044,0.27812,-0.23202,0.32916,0.32911,-0.15551,0.63519,0.32909,-0.18103,-0.5381,-0.28302,0.50765,0.32909,-0.56367,-0.81865,-0.2575,0.17609,0.12504,0.12507,0.20163,-0.078959,0.30353,-0.079026,0.048543,0.17615,0.099626,0.73725,-0.28308,-0.71668,-0.23202,-0.13002,0.3291,0.96682,0.89029,-0.58912,-1.5584,-0.028029,0.25259,0.20161,-0.078953,0.45664,0.25259,0.38012,-0.25754,-0.23201,-0.38505,0.40566,0.32912,-0.002443,-0.61467,-0.86971,0.48218,0.6862,0.43111,-0.30856,-0.61459,-0.002394,0.45662,0.25263,-0.053482,-0.10446,0.73717,0.38017,-0.002467,-1.0993,-0.5126,0.07402,0.60965,0.32915,-0.15546,0.17614,0.27806,-0.58918,-0.15553,0.27814,0.023084,0.27812,0.53321,0.25262,-0.79315,-0.41057,-0.15558,0.45659,0.17604,-0.002461,0.04858,0.12512,0.60965,0.20159,-0.51257,-0.64015,0.048525,0.099564,0.048549,-0.56359,-0.078959,0.60969,0.9668,-0.13001,-0.58911,-0.43614,0.30358,0.89024,-0.10452,0.048629,-0.027944,0.35459,-0.53814,-0.51263,0.22714,0.22714,0.15055,0.27809,0.09954,-0.20649,-0.38507,0.12509,0.048512,-0.002454,-0.078977,-0.1045,-0.46162,0.40556,0.40566,-0.15546,-0.25748,0.63519,0.71172,-0.25753,-0.58911,-0.5891,0.32909,0.43112,0.38011,0.074057,-0.30847,-0.71671,-0.12999,-0.25758,0.12507,-0.30855,0.91575,1.0943,0.2526,-0.79316,-0.46157,-0.30855,0.40568,0.15057,-0.12999,-0.18097,0.20153,0.15054,-0.15554,-0.002472,-0.25748,-0.23206,0.20158,-0.15545,0.048567,-0.33406,0.32909,0.8903,0.76272,-0.7422,-0.86972,-0.07899,0.58422,-0.10445,0.48223,0.022974,-0.56356,-0.13005,0.71173,0.53318,-1.3288,0.50769,0.71168,0.50768,-0.33402,-0.64015,-0.38506,0.17608,0.099534,0.023035,-0.002423,0.15059,0.27808,-0.002454,-0.20652,-0.23201,-0.028011,-0.02798,0.099466,0.32911,-0.20644,0.023054,0.099595,0.17612,0.12508,-0.33408,0.58411,0.227,-0.51255,-0.35953,-0.15544,0.2526,0.40565,0.38016,-0.33404,-0.33407,0.40559,0.66073,0.15062,-0.28306,-0.71666,0.12507,0.48214,-0.38503,-0.20652,-0.027974,0.20156,0.15054,0.20157,-0.33401,-0.71663,0.048555,0.55864,0.25263,0.17611,-0.053531,0.073989,0.1506,-0.10452,-0.078935,-0.43604,-0.002485,0.73717,-0.053433,-0.20644,0.58422,-0.002601,0.074038,-0.79317,-0.43606,-0.41055,0.25256,0.71171,0.2781,0.20164,-0.027956,-0.18106,0.1505,0.22707,0.074093,-0.385,-0.35951,-0.10453,0.40569,-0.15548,-0.30855,-0.23208,0.32907,0.023054,-0.07899,-0.38504,0.17613,0.7882,-0.027987,-0.053451,-0.28303,-0.15553,-0.15551,-0.078977,-0.25756,-0.48707,0.12505,0.68623,0.60973,0.86478,-0.56362,-1.3799,-0.56366,0.17603,0.35472,0.32919,0.68622,0.27811,-0.46152,-0.6911,-0.41059,0.4056,0.81368,0.27809,-0.15552,-0.20653,0.023059,-0.0535,-0.12999,-0.28301,-0.23205,0.40566,0.074062,-0.13,-0.33404,-0.38506,0.099577,0.86471,0.35466,-0.30856,-0.25754,0.12507,0.5332,-0.18101,-0.51254,-0.283,0.43106,0.78816,0.023072,-0.38502,-0.94617,-0.58916,0.58411,0.58419,-0.30853,0.048598,0.20167,0.48215,0.32908,0.22705,-1.1502,-0.97171,0.63517,0.63517,0.38016,-0.23202,0.12507,0.25257,-0.28302,-0.28302,-0.46157,-0.1045,0.71169,0.074038,-0.46162,-0.76763,0.38016,1.2219,0.38012,-0.74217,-1.0993,0.48214,0.81375,-0.053506,-0.25753,-0.12999,-0.12999,0.48214,0.58424,-0.2065,-0.74214,-0.23207,0.38013,-0.002491,0.12505,-0.18098,-0.23199,0.40565,0.12507,-0.078984,-0.53808,0.15054,0.66067,-0.027969,-0.64018,-0.51258,-0.20647,0.43108,0.22711,-0.002461,-0.002443,0.32913,0.22703,-0.20652,-0.20654,-0.28296,0.55872,1.2219,-0.71663,-1.6094,-0.46159,0.68619,1.0688,0.3291,-0.18103,-0.33404,-0.053458,0.2781,0.074057,-0.38506,-0.46158,-0.15553,0.38008,-0.30854,-0.28303,-0.79317,0.12504,0.94133,0.40565,-0.43602,-0.38506,0.22699,0.38014,0.15059,0.20162,-0.84413,-0.46149,0.78822,0.45663,0.20155,-0.43609,-0.56368,-0.61471,0.22708,0.81378,-0.002423,0.048604,0.38013,0.048567,-0.38506,-0.30853,-0.35959,0.099521,0.25257,-0.027956,-0.46154,-0.23203,0.45668,-0.10449,-0.46159,-0.30856,0.023029,0.8137,0.20165,0.32915,-0.25753,-0.51269,0.58414,0.048555,-0.23198,-0.20642,0.20159,0.45662,-0.028018,-0.79313,-0.71663,-0.053439,0.68619,0.048561,-0.078959,-0.53807,-0.18105,0.45664,0.6607,-0.4871,-0.7932,-0.66565,1.1453,0.68626,-0.15544,-0.53808,0.048543,0.3546,0.15059,-0.13,-0.61462,0.074026,0.25258,-0.41052,0.15059,-0.33407,0.20159,0.50759,-0.46152,-0.58917,0.25255,0.55864,0.45669,-0.46152,-0.38502,-0.38506,-0.23196,0.53318,-0.25757,-0.66565,-0.23208,0.30363,1.4769,0.27812,-1.2779,-0.56363,-0.15553,0.58417,0.30363,-0.053464,-0.12991,-0.002412,0.6097,-0.002461,-0.28304,-0.20652,-0.027987,0.6352,-0.43615,-0.46157,-0.23205,-0.35956,0.3036,-0.027871,-0.078959,-0.23202,-0.46161,0.63516,-0.002485,-0.079008,-0.15548,0.25258,0.91576,0.20164,0.048585,-0.66555,-0.66569,0.02298,-0.23207,-0.20653,0.02309,0.1251,0.55867,0.32913,-0.35956,-0.84419,0.27808,0.63518,-0.20654,-0.18099,0.074111,0.27814,0.43115,0.023023,-0.10454,-0.5891,-0.10445,0.22708,-0.2576,0.023059,-0.5126,-0.15551,0.32915,-0.12996,-0.28302,-0.3341,-0.10449,0.50768,0.30361,-0.18097,-0.12996,-0.078996,0.5076,-0.38505,-0.18097,0.048543,-0.53813,-0.028018,0.35462,0.43118,-0.25749,-0.18098,0.38012,0.12508,0.20164,-0.48708,-0.43609,0.22704,-0.079008,-0.30855,-0.56358,-0.30856,0.45665,-0.078935,-0.002461,-0.28303,-0.18099,0.66069,0.17601,-0.25754,-0.20644,-0.53804,0.048469,-0.053433,0.023072,0.15059,-0.33411,0.40562,0.68619,0.40565,-0.35951,-0.38505,0.15058,-0.61469,-0.2576,-0.35953,0.099595,0.78824,-0.13,-0.56362,-0.76765,0.048573,0.78824,0.40566,-0.02795,-0.48707,-0.23205,0.63516,-0.053495,-0.41055,-0.23202,-0.053427,0.76267,-0.30859,-0.43608,-0.64009,-0.5891,0.25259,0.58424,0.35458,-0.43604,-0.38505,0.7117,0.25264,0.023072,-0.30854,-0.33407,0.63515,-0.43612,-0.86972,-0.76767,0.20162,0.76273,0.38012,0.099613,-0.35953,-0.38514,0.35463,0.20163,-0.33407,-0.28303,0.5332,0.43116,-0.69116,-0.43606,-0.25747,0.45662,0.78814,-0.15549,-0.4871,-0.30855,-0.18096,0.45664,-0.15548,0.099583,-0.30852,-0.15552,0.55864,-0.20655,-0.13001,-0.33401,-0.078984,0.58418,0.38014,0.2271,-1.0227,0.27816,-0.028011,-0.3851,0.023047,-0.81871,-0.20649,0.5332,-0.027931,0.38018,-0.10443,-0.002479,0.50765,0.32909,-0.002485,-0.58907,-0.56358,0.45656,0.25256,-0.25754,-0.69111,-0.53807,0.35461,-0.053488,-0.38504,-0.46159,-0.027962,0.91576,0.38014,0.12509,-0.76764,-0.51262,0.68617,0.68621,0.023023,-0.25746,-0.4361,-0.28308,-0.46161,0.32915,-0.46159,0.12508,1.0433,0.50772,0.38011,-0.58906,-0.53808,0.35461,-0.30854,-0.71665,-1.0228,-0.81871,-0.00254,0.12508,0.4567,-0.53811,-0.15551,0.8137,0.4567,0.22711,-0.48706,-0.5381,0.58418,0.30361,-0.30855,-0.46157,-0.23197,1.0943,0.66075,-0.5126,-1.5329,-0.35956,0.86472,0.35465,0.35462,-0.66565,-0.8442,0.60967,0.32912,-0.15544,-0.79313,0.023023,0.99224,-0.027998,-0.69113,-0.58913,-0.15548,0.91576,0.43116,-0.10446,-1.0737,-0.51259,0.38011,0.12504,0.45667,-0.002528,-0.33402,0.4567,0.25263,-0.41054,-0.84423,-0.33406,0.91578,0.17607,-0.51259,-0.79314,0.25257,0.81368,0.4822,-0.002399,-0.30855,-0.74217,0.27807,0.048518,-0.2065,-0.30851,-0.002448,0.27808,-0.28306,0.023047,-0.2065,-0.30853,0.43113,0.22712,-0.23203,-0.51254,-0.35957,0.60969,0.45665,0.099595,-0.92074,-0.58909,0.3546,0.22708,0.43112,-0.18104,-0.41056,0.38017,0.22718,0.20163,-1.0482,-0.74218,0.32904,0.81375,0.25259,-0.53807,-0.48708,0.55865,0.2271,0.15059,-0.79312,-0.69118,0.35461,0.30361,-0.20653,0.15063,-0.28299,0.27808,-0.51262,0.30366,-0.18101,-0.53813,0.32908,-0.28307,0.048573,0.023059,-0.30851,0.55867,0.22708,0.048592,-0.43604,0.099491,0.78821,-0.48712,-0.69115,-0.51257,-0.58908,0.89023,0.12507,-0.053476,-0.69111,0.17611,0.86472,0.17609,-0.69119,-0.66562,-0.38506,0.71168,0.32915,-0.28303,-0.6146,-0.07899,0.83925,0.17606,-0.41056,-0.43606,-0.28302,0.7117,0.30363,0.074093,-1.3543,-0.74217,0.63513,0.35461,-0.002467,-0.33401,0.12506,0.60969,0.32913,-0.38508,-0.92067,-0.8187,0.83925,0.58414,0.38016,-0.25748,-0.92072,0.074013,0.27806,0.27815,-0.56354,-0.23205,0.48214,0.22707,0.17607,-0.46156,-0.56362,0.32913,0.074062,-0.12997,-0.46153,-0.33405,0.68616,0.099521,-0.69119,-0.97171,0.32917,1.1198,0.4312,0.30364,-0.41053,-0.35957,0.40559,-0.10451,-0.35957,-0.69111,-0.25754,0.35465,-0.027956,0.023041,-0.43612,-0.41057,-0.053415,0.32908,-0.002491,-0.53807,-0.15547,0.27816,0.074124,0.15064,-0.79321,-0.028047,0.60966,0.25258,0.023059,-0.56355,-0.61463,0.86475,0.22708,0.15058,-0.48705,-0.76769,0.176,-0.43606,-0.12996,-0.078923,-0.078959,0.68616,0.17609,-0.181,-0.61459,-0.35957,0.4311,0.58419,0.40568,-0.92072,-0.23203,0.66068,-0.51259,-0.181,-0.56355,-0.18101,0.78821,0.40561,0.4311,-0.35957,-0.46154,-0.002461,-0.02792,-0.30851,-0.81865,-0.027956,0.3801,0.20158,0.1506,-0.58909,-0.46154,0.89026,0.86476,-0.81868,-0.76767,-1.0993,0.96675,0.48214,0.099601,-0.48707,-0.97172,0.86473,0.048543,-0.232,-1.0737,-0.2065,0.68621,0.3291,0.30363,-0.23194,-0.51262,0.30353,0.048536,-0.002423,-0.28298,0.023029,0.68613,-0.028047,-0.2065,-0.8186,-0.61455,0.30358,0.2781,0.43119,0.023047,0.15057,0.40558,-0.81871,-0.51262,-0.4871,-0.33405,0.94128,0.32913,0.45669,-0.79312,-0.76769,0.15057,0.35459,0.27812,-0.43599,-0.46157,0.60963,0.15054,-0.15549,-0.51255,0.12507,0.96671,0.20159,-0.18103,-0.94618,-0.76764,0.58417,0.1506,0.17607,-0.43607,-0.13002,0.35462,-0.002467,0.099546,-0.30854,-0.43608,0.45667,-0.027925,0.22712,-0.3086,-0.38507,0.074038,-0.053439,-0.027956,-0.69111,-0.002461,0.68615,-0.027974,0.53321,-0.74214,-1.0993,0.71163,0.55867,0.32913,-0.48705,-0.74213,0.99224,0.22711,0.048549,-0.69106,-0.4871,0.3291,-0.18103,-0.0535,-0.94617,-0.58911,0.48213,0.27805,0.45669,0.074081,-0.2575,0.66065,-0.053488,-0.2065,-0.38504,-0.53809,1.0433,-0.23204,-0.23203,-0.71659,-0.66566,0.81376,0.35462,-0.002467,-0.053488,0.22705,0.58418,-0.078996,-0.43601,-1.0227,-0.232,0.4311,0.074051,-0.25753,-0.46156,-0.51258,0.68616,0.45664,0.099583,-0.53803,-0.46155,0.32901,0.86468,0.40557,-0.38501,-0.86965,0.048561,-0.23195,-0.078935,-0.89515,-0.79319,0.91571,0.66064,0.35461,-0.46156,-0.20648,0.6607,0.17609,-0.4616,-0.89521,-0.35954,0.78819,0.099515,-0.58911,-0.46159,-0.38506,0.96679,0.58425,0.35467,-0.9207,-1.1758,0.22704,-0.002423,0.22714,-0.28298,-0.18099,0.78819,0.48216,0.074087,-0.81868,-0.66564,0.81368,-0.18101,-0.18105,-0.5381,-0.15548,0.55867,0.074062,-0.25746,-0.92062,-0.69114,0.68613,0.40562,0.048536,-0.53809,-0.053458,0.96679,0.45663,0.074075,-1.0737,-0.66561,-0.07907,0.2271,0.58419,-0.79316,0.099608,0.99229,0.09957,-0.5636,-0.7166,-0.33407,1.0433,-0.028023,-0.28302,-0.71661,-0.05347,0.73723,0.09954,-0.12998,-0.79313,-0.35959,0.53314,0.32912,-0.30852,-0.64015,-0.46154,0.83923,0.40564,-0.02792,-0.51257,-0.35957,0.58414,0.20158,0.048549,-1.2778,-0.56358,0.68618,0.76275,0.55872,-0.30851,-0.33404,0.73716,-0.33408,-0.41059,-0.56355,-0.07899,0.53317,0.048561,0.12506,-0.76763,-0.23204,0.76268,0.20158,-0.15554,-0.7166,-0.84419,0.91573,0.38012,0.20164,-0.30856
-0.48706,-1.5839,-0.86973,-0.053531,0.35468,0.48219,0.17616,0.32915,1.3239,0.76275,-1.3543,-0.61463,0.40567,1.0688,-0.86969,-0.81873,-1.2268,0.25263,1.1709,0.20163,-0.51262,-0.6656,0.38012,1.2218,-0.6147,-0.48708,0.15059,-0.48703,0.38011,0.66062,-0.71654,-0.81857,0.12512,0.17607,1.1708,-0.053537,-1.5839,-1.3798,0.60963,0.3802,-0.12995,-0.94616,-0.8697,1.6299,1.579,-0.48713,-1.2268,0.48218,1.6299,0.81373,-0.12998,-1.1502,-1.4818,-0.028005,0.17611,-0.18096,-0.86967,-0.64012,1.1708,1.1964,0.099552,-1.5329,-0.64015,0.89023,0.50764,-0.0535,-0.51249,0.40572,0.83921,-0.28312,-0.8696,-0.84416,0.63517,0.60971,0.38016,-0.58918,-1.6859,-1.0482,0.58414,0.27809,-0.15548,-0.6146,-0.41058,2.3442,0.63517,-0.61468,-0.84417,-0.64008,0.78827,0.43121,0.27817,-0.94617,-0.84424,1.0688,0.073965,-0.00254,-0.61462,-0.51255,0.86471,0.099521,-0.20652,-0.81864,-0.38497,0.73729,0.048549,0.15055,-1.3288,-0.053464,1.0943,0.12499,0.58419,-0.20652,-0.9207,0.6352,0.17611,-0.48709,-1.2778,-0.33399,1.1453,1.2219,-0.92076,-1.3543,0.4567,0.89031,-0.028023,-0.66567,-0.5891,0.04858,0.86478,0.17617,-0.48708,-0.92062,0.32904,0.91569,0.20153,-0.13013,-1.5328,0.45677,0.81366,-0.84414,-2.0686,-0.053458,0.99237,1.2984,-0.18092,0.38012,-0.81864,-0.18098,0.27807,0.7117,-0.28308,-0.9462,-0.48716,0.55865,-0.00243,0.12507,-0.30853,-0.33399,0.53313,0.35461,0.25259,-0.76765,-0.33404,0.68618,0.27804,-0.12993,-1.0992,-1.5583,0.58416,0.48217,0.91572,0.02301,0.099552,1.0688,-0.43602,-0.28306,-1.5073,-1.0227,1.2983,0.45665,0.27815,-1.0482,-0.10448,0.68617,0.50764,-0.25748,-0.23203,-0.66563,0.53313,0.50765,-0.35955,-0.58911,-0.35956,0.73723,-0.33406,-0.38508,-0.41058,-0.12992,0.71168,0.40563,0.3547,-0.61459,-0.86963,0.5076,0.023005,0.048555,-1.0227,-0.46156,0.86471,-0.13004,0.2781,-0.33401,0.40566,0.20161,-0.15555,-0.20654,-0.84414,-0.51257,1.0943,0.15057,-0.15543,-0.48706,-0.33412,0.68616,0.12507,-0.23202,-0.61458,-0.15551,0.68618,0.12505,-0.1045,-0.66557,-0.33399,0.53317,0.20158,-0.028042,-0.61457,-0.53809,0.50765,0.20159,0.099528,-0.74211,0.27812,0.099552,-0.61462,-0.027944,-0.56364,-0.58908,1.0688,0.53315,0.15057,-0.86965,-0.6146,0.8392,0.023041,-0.002472,-0.53805,-0.12999,0.58413,0.17605,-0.002423,-0.89516,-0.2575,0.12499,-0.02795,-0.10453,-0.58908,-0.38502,0.40562,0.35461,0.48218,-0.74209,-0.56356,1.1707,0.40565,0.22705,-1.1502,0.2526,0.63515,-0.38505,-0.84411,-0.385,0.074062,0.91572,0.27814,-0.13005,-0.94622,-0.81875,0.7627,-0.07899,0.30369,-0.7166,0.25257,1.5534,-0.41058,0.12512,-0.33398,-0.56362,0.43104,-0.002565,0.048567,-1.3287,-0.10449,0.78818,0.68621,0.2526,-0.74214,-1.5073,0.58412,0.81379,0.32915,-0.35946,-0.35952,0.074002,0.17598,-0.30856,0.074093,0.30361,1.1197,-0.28298,-1.7623,-1.2012,-0.51263,0.96675,1.2218,0.48214,-0.94623,-0.30851,1.0688,0.35465,-0.078935,-0.86962,-0.41054,0.58409,0.32909,-0.15549,-1.0737,-0.4871,1.0177,0.48216,-0.15549,-0.51258,-0.58908,1.8085,0.27813,-0.86976,-1.8389,-0.25751,0.86474,0.73723,0.40566,0.12518,0.1251,0.048487,-0.5382,-0.71671,-0.41056,0.17614,1.0688,-0.027962,-0.078966,-1.2267,-0.20651,0.73719,-0.61464,-0.10447,-0.053451,0.048543,0.71167,0.022986,0.27814,-1.1502,-0.46154,0.68619,0.55869,-0.13007,-1.2523,-0.8952,0.60964,0.73733,-0.053433,-0.35947,-0.30855,0.71165,-0.002497,0.04858,-0.25755,-0.20654,0.89021,-0.43601,0.71182,-0.58908,-0.028018,0.35454,-0.35965,-1.4819,-0.8187,-0.078935,0.91586,0.30364,0.50768,0.40563,-0.053482,0.5587,-0.15551,-0.15553,-0.38505,-0.35957,0.71171,0.43113,-0.28303,-1.7369,-0.9462,0.73717,0.074062,-0.002461,-0.89522,0.074149,1.3239,1.3495,0.099583,-0.79314,-0.89522,0.40556,-0.027969,-0.15554,-0.20651,-0.38506,0.76273,0.35461,-0.12999,-0.94617,-0.38504,1.0943,-0.027998,-0.35958,-1.0483,0.15057,1.1198,0.35467,0.023108,-0.97164,-0.58909,-0.1301,-0.13004,0.48216,-0.53804,-0.30856,0.58414,0.53317,0.73726,-0.92067,-0.81871,0.48214,0.20155,-0.078966,-0.078959,0.023084,0.60965,0.35465,-0.2065,-0.6146,-0.38506,0.048458,-0.6146,0.25252,-0.41054,-0.74209,0.8392,0.48217,0.15056,-0.5891,-0.51257,0.91575,0.86478,0.048536,-0.92074,-1.1503,1.2219,0.60969,-0.56358,-0.15543,0.25265,0.53314,0.09954,-0.002497,-0.56362,-0.64011,0.38008,0.09954,0.074051,-0.51257,-0.51261,0.86475,0.22712,0.30363,-0.79316,-1.0228,0.7117,1.0178,0.1506,-0.94619,-0.35959,0.94122,0.30363,-0.28302,-0.94622,-0.15548,1.1708,0.60969,-0.25748,-0.51261,-0.4616,0.71166,0.074044,-0.56361,-0.84417,-0.48709,0.76269,0.25262,0.58427,-1.1757,-0.1045,0.81373,0.099497,0.66067,-0.25754,-0.94617,0.17603,0.43114,0.45672,-0.46152,-0.51255,0.22702,0.099528,0.27809,-0.58904,-0.35954,0.83921,0.2271,0.099577,-0.71663,0.074044,0.73718,-0.002497,-0.58911,-0.18095,-0.15551,0.40562,-0.28306,-0.078953,-0.53809,-0.61465,1.3494,0.81372,-0.86968,-1.0737,0.15059,1.3239,0.074051,0.15061,-0.43602,-0.027956,0.55864,0.023041,-0.4106,-0.66558,-0.43606,0.4311,0.12507,0.023017,-0.38503,-0.002485,0.91578,-0.23202,-0.38508,-0.8187,0.2271,0.81378,0.048525,0.17609,0.35467,-0.64018,-0.51259,0.27811,0.27812,-0.46155,-0.28308,0.43109,-0.23203,0.48222,-0.3595,0.074051,0.55859,-0.23206,-0.15553,-0.027956,0.048561,0.35458,-0.23202,-0.23199,-0.94619,-0.23201,0.83923,0.17606,0.15057,-0.48705,0.27817,0.25253,0.25258,-0.38516,-0.51255,-0.078984,0.63524,-0.53812,-0.13001,-0.33404,0.43117,1.2984,0.35465,-0.46155,-0.76764,-0.07899,0.63512,0.20158,-0.86977,-0.94619,-0.027944,0.55865,-0.002467,0.25266,0.0741,-0.053458,0.76267,-0.30853,-0.13004,-0.56358,-0.30852,0.63518,0.17609,-0.28305,-0.43604,-0.4871,0.55862,0.50763,0.074038,-0.69108,-0.61462,0.78822,-0.027969,-0.10445,-0.078959,-0.35953,1.0178,0.07402,-0.10449,-0.66563,-0.41054,0.71169,0.30361,-0.12999,-0.51257,-0.13002,0.53314,0.17603,0.02298,-0.41053,-0.41051,0.43113,-0.078984,-0.15545,-0.33399,0.048512,0.73717,0.32905,-0.12998,-0.25747,-0.18101,0.58418,-0.20653,-0.002467,-0.33404,-0.41057,0.63516,-0.002454,-0.23205,-0.43604,0.27812,0.68618,-0.23204,-0.30852,-0.94615,-0.46157,0.86475,0.30356,-0.053495,-0.38506,-0.35957,0.96678,0.45664,-0.002423,-0.33402,-0.89522,0.35458,0.58415,0.30363,-0.38502,-0.33401,0.68617,0.35463,-0.002461,-0.86964,-0.58913,-0.15556,0.048549,0.35462,0.27812,-0.61462,0.81373,0.17611,0.2271,-0.99721,-0.53813,0.55867,0.50765,0.20153,-0.23196,0.099552,0.4822,-0.66562,-0.078996,-0.30852,-0.002503,0.58412,0.25262,-0.079021,-0.81865,-0.002448,0.55869,0.099613,0.20158,-0.69112,-0.48711,0.22705,-0.25755,-0.002479,-0.58909,-0.10448,0.81377,0.53311,0.58422,-0.334,-0.76765,0.50764,0.048531,-0.43603,-0.5636,-0.28302,0.78818,0.5076,0.43115,-0.81864,-1.3033,0.15053,0.38012,0.43112,-0.002418,0.023103,0.73718,0.1506,-0.12997,-0.66561,-0.56364,0.58412,0.6862,-0.18097,-0.385,-0.02798,0.48211,-0.61465,-0.10452,0.4057,-0.002491,0.45661,-0.05347,-0.23203,-0.64011,-0.46156,0.71168,0.30361,0.2781,-0.35952,-0.48709,0.2526,0.48216,0.12505,-0.48705,-1.0227,0.20153,0.20152,0.60968,0.074111,-0.12998,0.63517,0.27813,-0.15552,-0.51259,-0.20649,0.53312,0.27813,-0.002436,-0.23198,-0.53809,-0.10458,-0.20656,-0.1045,-0.41056,0.20162,1.1198,0.50762,-0.25754,-0.15545,-0.58916,0.81372,0.32911,0.023005,-0.84412,-0.3085,0.78822,0.2781,-0.25754,-0.69108,0.022998,0.15051,-0.30858,-0.46161,-0.10444,0.50777,1.5024,0.50768,-0.53813,-0.69111,-0.25754,0.66066,-0.13007,0.048531,-0.33399,-0.027931,0.68618,0.12505,-0.38503,-0.56358,0.023029,0.25254,-0.10457,-0.94627,-0.64013,0.4312,1.1964,0.68623,0.71177,-0.20644,-0.30852,0.22701,-0.56367,-0.46164,-0.25751,-0.30849,0.55864,0.50766,0.35463,-0.53807,-0.33404,0.60963,-0.002503,-0.41062,-0.28298,0.074075,0.89026,0.12509,-0.283,-0.58908,0.048536,0.45662,-0.15553,0.38011,-0.41057,-0.81868,0.2526,0.43114,0.099583,-0.13,0.53319,0.27807,-0.74218,-0.20653,-0.12997,-0.027956,0.78823,0.71174,0.048592,-0.61457,-0.48714,0.38008,-0.028011,-0.18109,-0.38502,-0.30854,0.83927,0.30364,-0.28305,-0.51255,-0.23203,0.45659,0.3036,-0.027974,-0.283,-0.12994,0.68615,0.099528,0.15058,-0.30849,-0.30855,0.78819,-0.053495,-0.46157,-0.76761,-0.20652,0.78821,0.22706,-0.053476,-0.38504,-0.35954,0.38006,0.66069,0.17609,-0.64014,-0.027938,0.48211,0.48216,0.58428,-0.74212,-1.3289,0.022943,-0.053555,0.27811,0.15062,0.40568,0.86474,0.71175,0.32918,-0.61457,-0.46159,0.40559,0.022986,-0.35957,-0.56358,-0.35956,0.43108,-0.053549,-0.20646,-0.28297,0.04858,0.94124,-0.027998,0.023035,-0.41056,0.099619,0.94124,0.099564,-0.13,-0.79313,-0.2575,0.60963,0.38013,-0.48713,-0.35951,0.12507,0.6607,0.2526,0.023054,-0.002405,-0.10447,0.3036,-0.38511,-0.25755,-0.41056,-0.35954,0.94124,0.40562,0.17614,-0.30854,-0.41061,0.96676,-0.02798,-0.18103,-0.28303,-0.10449,0.40561,-0.10447,-0.28305,-0.48705,-0.4361,-0.23202,0.60969,0.30362,-0.33405,-0.56363,0.89023,1.2984,-0.69119,-0.43602,0.5332,0.99226,-0.053506,-0.15548,-0.35956,-0.35954,0.27806,-0.23199,-0.232,-0.2065,-0.64015,0.68616,0.12502,-0.15553,-0.23198,0.048647,0.48211,0.53317,0.023035,-0.64009,-0.6911,0.53318,0.48213,0.27806,-0.12999,-0.20653,0.32904,-0.35963,0.48221,-0.027882,-1.0992,-0.30859,0.45667,0.3036,-0.12993,-0.41053,-0.13004,0.73725,0.71175,0.15061,-0.02798,0.68615,0.099521,-0.30858,-0.64015,-0.35952,0.3291,-0.15553,-0.053488,-0.38502,-0.15547,0.71169,0.12509,-0.13002,-0.10449,0.023047,0.76272,0.43115,-0.23198,-0.89519,-0.002461,1.1453,-0.56366,-0.61468,-0.66563,0.38018,0.25261,1.0943,0.68626,-0.86971,-0.7932,0.45661,0.58421,0.27809,-0.38505,-0.35956,0.58416,0.30363,0.099588,-0.79317,-0.56358,0.5076,0.25256,-0.002516,-0.1555,-0.283,0.43112,0.15057,0.20164,-0.48697,-0.9462,-0.053555,0.7627,0.78819,0.38015,-1.4564,-0.41063,0.86479,0.81376,0.22719,-0.99726,-0.51268,0.48216,1.0178,0.12514,-0.61457,0.20155,0.022986,-0.20649,-0.81865,0.12507,0.40558,-0.30859,-0.027993,0.17612,-0.10447,0.35458,0.1506,-0.078959,-0.43604,-0.053464,1.0177,-0.20652,-0.18105,-0.92068,-0.51262,0.96679,0.55871,0.4822,-1.0482,-0.61465,0.048451,1.1708,1.0433,-0.48709,-0.38504,0.68619,0.60967,0.20167,-0.74208,-0.38506,0.22703,0.048512,-0.41061,-0.283,0.0741,0.76269,0.12504,0.048518,-1.0482,-0.23199,0.53317,0.68616,0.22709,0.04858,-0.181,0.73726,0.09951,-1.1758,-1.2268,0.15056,1.1964,0.66072,0.074069,-0.23197,-0.51265,0.25251,0.60967,0.25265,-0.28297,-0.43604,0.43109,0.099515,-0.079026,-0.43607,-1.0738,0.32907,0.53318,0.53321,-0.12994,-0.10448,0.25256,0.3802,-0.58919,-0.23203,-0.078941,1.0178,0.4056,0.25262,-0.35952,-0.10449,0.43108,-0.027993,-0.20658,-0.53812,-0.20649,0.86472,0.40564,-0.027969,-0.46154,-0.41055,0.6607,0.20163,0.58421,-0.4106,-1.4819,-0.53822,0.48213,-0.078935,0.15066,1.2219,1.0178,0.53318,0.40569,-0.33407,-0.33413,0.17605,0.074081,-0.53804,-0.43606,0.048518,0.55862,0.25254,-0.48712,-0.56358,-0.232,0.63519,0.6862,0.023096,-0.53804,0.17606,0.15049,0.023029,0.55871,-0.64011,-0.38509,0.38012,0.2526,0.27815,0.099601,-0.1045,0.2526,0.17609,-0.58925,-0.12996,0.43117,0.17606,0.40565,-0.33405,-0.71663,-0.33407,0.48215,0.27808,0.17607,-0.56358,-0.58914,0.40565,0.32912,0.20163,-0.078928,0.30359,1.0432,-0.00251,-1.0228,-0.38506,0.099552,0.81375,-0.002418,0.22717,-0.58903,0.048543,0.73718,0.27806,-0.33409,-0.41052,-0.15554,0.17601,0.17604,0.53318,-0.35951,-0.078977,-0.079021,0.074062,0.22706,-0.18101,0.15064,0.53318,0.27806,-0.41056,-0.002436,0.074062,0.15056,-0.43614,-0.38513,-0.10451,0.09957,1.0433,0.30368,0.38015,-0.15546,-0.28303,-0.028005,-0.027993,-0.15556,-0.33401,-0.23202,0.45666,0.074044,-0.1045,-0.64011,-0.07899,0.68616,0.40561,0.27816,0.32913,-0.23202,-0.079014,-0.13005,0.099608,-0.053397,0.023103,0.17609,-0.30863,-0.25761,-0.23202,0.43118,0.6862,0.53313,0.22707,-0.15545,0.15057,0.25262,-0.25755,-0.43615,-0.81869,-0.12998,0.7117,0.68625,0.25265,-0.5891,-0.56362,0.99221,0.40565,-0.28307,-0.5126,-0.10446,0.45666,0.63521,-0.027969,-0.35952,-0.30855,0.12505,0.4056,0.048536,-0.05347,-0.6401,0.15054,-0.078984,0.22711,-0.23196,0.048555,0.68616,-0.1045,0.22712,-0.25759,-0.053476,-0.25759,0.2271,0.25267,-0.15544,-0.18101,0.63517,-0.56367,-0.41058,-0.20654,0.32915,0.96678,0.35467,0.3036,-0.283,-0.18101,0.40561,0.27809,-0.053525,-0.89518,-0.69116,0.68621,0.53313,0.048585,-0.56358,-0.053476,0.89023,0.66071,-0.05347,-0.15549,-0.002472,0.12502,-0.51262,0.53323,-0.02792,-0.15553,0.48211,0.38016,0.074038,-0.76765,-0.56366,0.99228,0.53314,0.27815,-0.92067,-0.41057,0.55866,0.58415,-0.002472,-0.20647,-0.15545,0.20152,-0.05347,0.68627,0.12509,-1.1759,-0.3086,0.58416,0.25264,-0.10448,0.22713,0.91575,0.30361,0.38015,-0.69108,-0.41056,-0.2831,0.20155,-0.43606,-0.41054,0.32914,0.66069,-0.002516,0.50769,-0.48706,-0.15548,0.43109,-0.078977,-0.13002,-0.53808,-0.46154,1.1453,0.50769,0.35462,-0.5126,-0.43606,0.30359,0.12504,-0.0535,-0.35953,-0.61463,0.15051,0.27812,0.40566,-0.053427,0.27809,0.40563,0.2781,0.32913,-0.46158,-0.41057,0.78815,-0.053513,-0.35954,-0.66555,0.074051,0.25257,0.40563,0.53323,-0.58914,-0.33407,0.71173,0.2781,-0.10447,-0.41057,-0.002454,0.4821,0.27807,0.12504,-0.48707,0.22718,0.40563,-0.25759,-0.58914,-0.41053,0.30365,1.0433,0.60968,-0.15552,-0.385,-0.64012,-0.079057,0.17604,-0.181,-0.12993,-0.002454,0.7117,0.099515,-0.079039,-0.078928,-0.23202,-0.053476,0.17606,0.12513,0.074093,0.20156,0.63517,-0.3341,-0.25756,-0.23201,-0.20649,0.7372,0.2526,-0.20652,-0.28298,0.35463,0.22705,0.048549,-0.18106,-0.41055,-0.2575,0.50765,0.60968,0.17606,-0.25746,-0.002467,-0.002503,0.20155,0.048555,-0.28305,-0.28303,0.15055,0.43116,0.30363,-0.078959,-0.10449,0.2526,-0.25756,-0.38516,-0.51262,-0.18098,1.1453,0.5587,0.1251,-0.61458,-0.33406,0.45658,0.074075,0.048567,-0.25754,-0.053476,0.83923,0.074026,-0.41056,-1.0482,-0.12999,0.71166,0.45662,0.17609,-0.10447,0.023054,0.53315,0.40562,-0.12998,-0.74214,-0.84416,0.22711,0.73721,0.48214,-0.61462,-0.71666,0.20155,0.30363,0.25263,-0.053427,0.15059,0.023023,0.02298,-0.053495,-0.13005,-0.002443,0.50766,0.63525,0.30364,-0.48706,-0.23199,0.35458,-0.58918,-0.13002,-0.10452,-0.35954,0.38013,0.27809,0.38014,-0.053415,-0.078966,0.32908,0.71168,-0.027944,-0.81868,-0.86969,0.074038,0.55869,0.40568,-0.23198,0.099528,0.60962,0.38013,0.048561,-0.64014,-0.38502,0.17604,-0.078972,0.45669,-0.28302,-0.28301,0.53312,0.27811,-0.30862,-0.41057,-0.15551,0.71173,0.48214,-0.15552,-0.33396,-0.38506,0.53315,0.30361,-0.15552,-0.053464,0.43113,-0.20653,-0.48714,0.099552,-0.15548,-0.15549,0.83925,0.22705,-0.43609,0.20164,-0.28304,0.048536,0.22708,0.22713,-0.20646,-0.15552,0.3801,0.22705,-0.30856,0.048555,-0.053464,0.099521,0.17607,0.099577,-0.18095,-0.20656,0.2526,0.27808,0.2271,-0.41059,0.023108,0.32915,-0.027969,-0.41057,-0.25755,0.074062,0.60965,0.58422,0.20156,-0.61466,-0.4871,0.2526,0.66074,0.023084,-0.12996,-0.56364,0.048506,0.048549,0.17604,0.099577,-0.18099,0.40562,0.63522,-0.02798,-0.64011,-0.23203,0.17609,0.32908,0.099583,-0.13002,-0.15548,0.25258,0.17608,-0.078972,-0.51257,-0.079033,0.099534,0.55866,-0.002479,-0.18102,-0.2065,0.40561,0.38015,0.38016,-0.48706,-0.38508,0.45662,0.43115,-0.027969,-0.35957,-0.15546,-0.23207,-0.61465,0.27811,0.25267,-0.053495,0.35459,0.83928,0.32911,-0.13,-0.23202,-0.002491,0.17606,-0.41053,0.023059,-0.33407,0.22705,-0.053495,-0.079045,-0.30853,-0.078953,0.27814,0.38008,0.12509,0.32916,-0.15548,0.40558,0.25256,-0.053451,-0.46156,-0.078959,-0.69121,0.30356,0.20163,-0.38502,0.12509,0.71167,0.32908,0.27805,-0.18097,-0.97173,0.099583,0.48217,-0.15548,0.048567,0.35462,0.048525,0.22706,-0.13001,-0.46156,-0.84417,0.17603,0.20156,0.32917,0.3547,-0.25753,-0.33412,0.25258,0.15057,0.1761,0.1506,0.32908,0.30358,0.12507,-0.56359,-0.15545,-0.00251,0.12508,-0.28304,-0.002448,-0.0535,0.27811,0.15053,0.63525,-0.33405,-0.10449,0.35458,0.023029,-0.30856,-0.10444,-0.2065,0.35464,0.45665,-0.10444,-0.58912,0.023047,0.32907,0.4056,-0.23205,-0.002448,-0.002448,0.27815,-0.25757,-0.053446,-0.2065,-0.002479,1.0688,0.73721,-0.92073,-0.81871,-0.23201,0.43113,0.53318,0.1506,0.048604,-0.9462,0.27804,0.53316,-0.18107,-0.02795,0.099588,0.43112,0.15055,-0.12996,-0.58909,-0.12998,-0.3086,0.09954,0.40565,0.048555,-0.053482,0.20158,0.71176,0.35461,-0.25751,-0.15549,0.38016,-0.18106,-0.66571,-0.23204,-0.12999,0.27815,-0.079008,0.30364,0.38017,-0.10449,-0.053519,0.22705,0.099546,-0.25753,-0.20648,0.048536,0.38011,-0.002454,-0.18097,-0.2065,0.12504,0.27807,-0.20653,-0.15549,0.27816,0.43112,-0.027987,-0.027987,-0.002412,-0.25752,-0.10451,0.15054,0.3036,-0.20651,0.074075,0.43117,0.12502,-0.5891,-0.41057,-0.05347,0.55867,0.15051,0.3291,-0.283,-0.18098,0.38012,0.25259,0.15061,-0.41054,-0.56362,0.4311,0.50765,-0.41061,0.1251,-0.51259,0.12505,0.38016,0.023047,-0.027931,0.15059,-0.13002,0.099515,-0.23204,-0.13001,-0.18097,0.48218,0.73718,0.38016,-0.33407,-1.0738,0.27805,0.40567,0.099552,-0.3085,0.099577,0.048567,0.45665,0.12508,-0.35956,-0.33408,0.22706,0.30363,0.30361,-0.58913,-0.18103,0.40564,0.22706,-0.25748,-0.35954,-0.43607,0.20158,0.71172,0.12503,-0.28305,0.22713,0.048561,0.58419,0.022998,-0.41054,-0.30856,0.2526,0.6607,0.20158,-0.5636,-0.61462,-0.79322,0.4311,0.71175,0.15064,0.25265,0.30361,0.40559,-0.33407,-0.38508,0.023035,0.32913,0.43117,-0.5126,-0.35951,0.07402,0.38009,0.45655,0.20157,-0.89518,-0.35949,0.023047,0.22712,-0.64014,0.099588,0.40564,0.5587,0.63519,0.023005,-0.10447,-0.00243,0.17609,0.074013,-0.76766,-0.71667,-0.23203,0.3036,0.48211,-0.002534,0.50773,0.023029,-0.2065,-0.4361,-0.58913,0.73731,0.99235,0.17609,0.099534,-0.46164,-0.38507,-0.18099,-0.079033,0.023041,0.023078,0.099559,-0.51258,0.17608,0.38013,0.43113,-0.23202,-0.41057,0.38016,0.45667,0.20158,-0.15553,-0.25754,-0.13,-0.12995,0.25261,-0.053506,-0.002443,0.20155,0.48211,0.074051,-0.46151,-0.89519,1.0688,0.38008,-0.7167,0.099613,0.048598,0.22712,0.50766,-0.74214,-0.053464,-0.8187,0.20153,0.17606,0.099552,-0.053433,-0.002423,0.38011,0.15057,0.25259,-0.43609,-0.078928,0.40564,0.25256,0.022998,-0.71666,-0.079039,-0.027993,0.17604,0.45671,0.023108,-0.33399,-0.6657,0.96685,-0.25752,-0.2831,0.35459,0.9668,0.45664,-0.002448,-0.33399,-0.66563,-0.58916,0.22704,0.20156,-0.027956,-0.027962,0.32911,0.30364,0.15059,-0.18099,-0.4871,0.048555,-0.053525,-0.078972,-0.48709,0.30361,0.53317,0.83923,-0.053482,-0.30847,-0.25753,-0.38508,-0.10452,-0.20655,-0.58909,0.27815,0.78822,0.12502,0.50768,0.2016,-0.38506,-0.20648,0.074051,-0.002472,0.50765,-0.43612,-0.5126,-0.078996,0.38014,0.09957,0.048567,0.50769,0.15054,-0.53818,0.048518,0.83932,-0.02792,0.074026,-0.84414,-0.43597,-0.41051,-0.10459,0.81363,-0.76772,-0.25748,1.0179,0.32912,-0.86973,0.20159,-0.15545,-0.12995,0.32914,0.50764,0.2271,-0.078996,-0.92075,0.43107,0.20156,-0.02798,-0.92054,-0.28298,0.074038,0.68617,0.25264,0.048543,-0.43606,-0.002443,0.89004,-0.053451,-0.71657,-0.53811,0.50762,-0.41045,0.55862,0.99229,-0.76766,0.073971,-0.71666,-0.48711,0.32916,0.099528,-0.538,0.5587,0.60968,0.53298,-0.28301,-0.48706,0.25259,-0.05347,-0.15543,-1.1502,-0.25754,0.68621,0.48219,0.12513,-0.48706,0.45662,0.83925,0.099528,-0.69122,-1.0992,0.074087,0.45664,-0.35956,-0.61467,-0.02798,0.22709,0.48213,0.81373,-1.1758,0.30373,1.426,0.45664,-1.0738,-0.61468,-0.76768,0.81377,1.0687,-0.23201,-1.1758,-0.74215,0.048567,1.0178,0.1251,0.048536,-0.002412,0.43108,0.66067,-0.002448,-0.56353,-0.74214,0.63522,-0.33412,-1.635,-0.6657,0.71182,0.78827,0.78819,0.22715,-0.078966,-1.2013,0.15057,0.89029,0.023035,-0.15557,-0.38508,-0.30855,0.15053,0.048604,0.20165,-0.12998,-0.38511,0.43112,0.22708,-0.18097,-0.25752,-0.2575,0.3291,0.22711,0.048531,-0.35954,0.048543,0.48214,-0.027993,-0.41057,-0.66561,-0.51263,0.73726,0.68625,-0.41052,-1.0227,0.45663,1.63,-0.15557,-0.30856,-0.35956,-0.10449,0.35463,0.1506,-0.53807,-0.79316,-0.25761,0.43109,0.20156,0.2781,-0.002436,0.25267,0.38013,0.3036,-0.30855,-0.48709,-0.10453,0.40566,0.17607,-0.25751,-0.66568,-0.20653,0.27805,-0.078923,-0.30857,0.023065,0.50767,0.89026,0.2781,0.023047,-1.2013,-0.23203,0.68621,0.023054,-0.66563,-0.48706,0.58417,0.71173,-0.20653,-0.51257,-0.48708,-0.027944,0.43112,0.15056,0.17609,-0.002461,-0.33404,0.20154,-0.58913,0.12508,0.20163,-0.74212,0.83925,0.76276,0.45666,-0.13,-0.61466,-0.13007,-0.81868,-0.028018,0.023072,-0.23201,0.023029,0.30366,1.1709,0.20162,-0.33409,-0.053549,-0.30857,-0.2575,-0.3085,-0.25753,0.20153,0.2781,-0.18098,-0.002485,0.32908,0.30356,0.074087,-0.3595,-0.30855,-0.25745,0.17609,-0.10453,0.40558,-0.76767,0.71184,0.40556,-0.07907,-0.51264,-0.02792,0.3803,-0.66564,-0.56367,-0.15548,0.40566,0.099521,0.76264,0.074038,-0.38501,-0.2575,0.2271,0.50763,-0.20654,-0.35948,-0.69107,0.023059,0.58409,-0.18104,-0.46162,-0.25748,-0.1045,0.63516,0.43118,-0.33401,0.25264,-0.079021,0.073995,0.38009,-0.3851,-0.51254,-0.41054,0.50767,0.25266,-0.10446,-0.56358,-0.18103,0.43112,-0.35959,-0.13002,0.20153,0.12509,0.96673,-0.12998,-0.25746,-0.51256,-0.027895,-0.079033,-0.5126,-0.66567,0.17605,0.12508,0.3547,0.50762,0.12509,-0.48705,-0.20648,0.45668,-0.10452,-0.33407,-1.0992,0.35467,0.83922,-0.053476,-0.2065,-0.12998,0.3546,0.15051,-0.41058,0.099491,-0.74208,-0.385,0.38011,0.2016,0.099595,-0.53805,-0.33399,0.86464,-0.46159,-0.38506,-0.23199,-0.23202,0.58419,0.78829,0.71181,-0.69113,-0.28308,-0.28312,0.20156,-0.25751,-0.64011,-0.12999,0.83922,0.27808,-0.10448,-0.86967,-0.078953,0.73721,0.50761,-0.23199,-0.48705,-0.46154,0.40564,0.32915,-0.23201,-0.76768,-0.18105,0.63512,0.074062,0.25262,-0.74211,-0.15546,0.38013,0.15056,-0.002472,-0.84424,-0.002461,1.0178,0.099583,-0.18096,-0.10449,-0.71665,0.73716,0.30361,-0.13001,-0.74214,-0.027969,0.22706,-0.053476,-0.30854,-0.25748,-0.002412,0.27808,-0.30859,0.099583,-0.053488,0.22715,0.89021,-1.0483,-0.58916,-0.15546,0.38018,0.45666,0.023084,0.35464,-0.23197,-0.51264,-0.66564,-0.58918,0.15059,-0.053439,0.27811,0.89024,0.25257,-0.15546,-0.56358,-0.53817,0.99229,0.7627,-0.58916,-0.76764,-0.30851,0.17609,-0.002443,-0.43607,-0.30851,0.32907,0.66067,0.17611,-0.15549,-0.51255,-0.38506,0.40565,0.40564,0.38011,-0.61462,-0.4361,0.30356,-0.10447,-0.078972,-0.38502,-0.10449,0.40558,0.048585,0.20164,-0.51255,-0.92073,0.17603,0.35462,0.38016,-0.12997,-0.84415,-0.10456,0.20163,0.60971,-0.43606,-0.46159,0.68618,-0.053549,0.12507,-0.33399,-0.28303,0.38011,-0.078972,-0.25751,-0.20652,-0.33406,0.40558,-0.053476,0.023035,-0.58908,-0.30854,-0.002472,0.50768,0.27814,0.45671,-0.43613,0.20156,-1.1248,-0.61464,-0.58909,1.1199,1.8086,-0.002412,-0.41063,-0.76766,-0.74214,0.099528,-0.25751,0.07402,-0.41056,-0.18102,0.35457,0.38016,0.22711,-0.51256,-0.18101,0.53314,0.12508,0.023054,-1.0737,-0.71662,0.25256,0.35465,0.20161,-0.18097,0.023035,0.53311,0.38019,-0.43612,-0.76766,0.074069,0.71171,-0.12996,0.17608,-0.7422,-0.30856,1.0432,-0.10457,0.023029,-0.64005,-0.33398,0.32914,0.048592,0.15055,-0.71668,-0.46158,0.45664,0.099534,0.074087,-0.38505,-0.027962,0.35463,0.09954,0.25262,-0.61464,-0.66565,0.4056,0.53324,0.12509,-0.9972,-0.5891,0.22707,0.099577,0.20159,-0.25751,-0.20652,0.53313,0.22708,-0.079002,-0.53807,-0.002399,0.074062,-0.027993,-0.10449,-0.43608,-0.38511,0.4056,-0.079008,0.074062,0.023096,-0.078966,0.50769,-0.05347,-0.078996,-0.69112,0.12507,0.66068,-0.20652,-0.25757,-0.38503,0.22711,0.50762,-0.13,-0.20651,-0.84422,0.023084,1.2729,0.15054,-0.18101,-0.61461,-1.0482,-0.10452,0.78824,0.048585,-0.41055,0.023041,0.40566,0.074008,0.048543,-0.64017,-0.56361,0.53312,0.40563,-0.002448,-0.66551,-0.25747,0.38013,0.048506,-0.4871,-0.64014,-0.23204,0.78818,0.50769,0.20161,-0.30852,-0.181,0.3291,-0.38509,-0.053506,0.17613,-0.15549,-0.23202,-0.13003,-0.30855,-0.23201,-0.20651,0.2271,0.30364,-0.053495,-0.30854,0.099601,0.68623,0.12507,-0.078959,-0.6146,-0.43609,0.53314,-0.13001,-0.18103,-0.51256,-0.6401,0.4311,0.38013,-0.002461,-0.20647,-0.20655,0.48201,-0.002461,-0.41051,-0.30846,-0.12995,0.89027,0.074069,-0.28306,-0.58911,-0.25755,0.30359,-0.002472,0.074069,0.048592,-0.33406,0.53314,-0.10451,-0.18096,-0.46157,-0.30855,0.45658,-0.23201,0.20164,-0.10445,-0.66562,0.58415,0.27814,-0.41061,-0.23204,0.32913,0.43108,-0.53809,-0.33407,0.02309,0.17609,0.35461,-0.30852,-0.20648,-0.41051,-0.23203,0.58415,0.20156,-0.053488,-0.25753,-0.56357,0.50762,0.12504,-0.1555,-0.5891,-0.30854,0.48211,0.20159,-0.053476,0.20165,0.32918,0.17603,-0.8442,-0.079008,-0.41054,-0.053451,0.81376,0.40563,-0.25754,-0.48707,-0.23201,0.7117,0.099546,-0.12998,-0.6401,-0.41058,0.25259,-0.15553,-0.002479,-0.25755,-0.23202,0.55865,0.2271,0.074062,-0.6911,-0.51256,0.58417,0.38015,-0.28302,-0.86968,0.20161,0.81374,0.53314,-0.10447,-0.48707,-0.51261,-0.13009,-0.10449,0.60971,-0.053451,0.023072,0.073995,-0.13002,0.12511,-0.46157,-0.41057,0.45672,0.023017,-0.38512,-0.053476,0.43115,0.63523,-0.84421,-0.76761,-0.18091,0.27796,0.25249,-0.3851,0.22708,0.60975,0.76277,0.91586,0.12511,-0.86966,0.074062,-0.56364,0.048536,-0.1045,-0.15557,-1.1503,-0.46156,-0.027974,-0.38508,-0.10447,-0.25747,0.17614,1.4769,0.22704,-0.15554,-0.053433,0.27817,0.48208,0.023047,-0.38494,-0.6401,-0.41057,0.2015,-0.002467,0.48214,-0.86968,-0.3595,0.15057,-0.053458,0.43109,-0.30852,0.30367,-0.002503,-0.2065,-0.13002,-0.58913,-0.33416,0.78816,-0.027944,-0.18092,0.048616,0.5332,0.73721,0.20164,-1.3035,-1.5839,-0.35947,1.1198,0.81376,0.48223,0.27817,0.099552,-0.51259,-0.028011,0.12504,-1.0227,-0.79321,0.32907,0.074069,0.0741,-0.79313,-0.002479,1.0943,0.15052,-0.25753,-0.58905,-0.1044,0.86472,0.30355,-0.41056,-0.99716,-0.66559,0.50761,0.38013,-0.12999,-0.33407,0.17615,1.4259,-0.12998,-0.41059,-0.64012,-0.89517,0.53321,0.45666,-0.028018,-0.84417,-0.61463,0.76273,0.32914,0.22705,-0.6656,-0.58913,0.48214,0.35462,-0.002436,-0.51259,-0.3085,0.48216,-0.18105,-0.30854,-0.28303,0.17614,0.48213,-0.078977,-0.18101,-0.35954,-0.13,0.53314,0.53314,0.099595,-0.69117,-1.0992,1.0178,0.35473,0.023096,-0.48713,-0.053568,0.76265,0.27812,-0.20644,-1.2523,-0.53808,0.55866,0.15063,0.22705,-0.25753,-0.13002,0.60967,-0.13001,-0.23203,-0.56359,-0.61458,0.66072,0.76272,0.45659,-0.43604,-0.51252,0.66065,-0.027969,-0.078996,-0.5891,-0.79316,0.30355,-0.079021,-0.0535,-0.25753,-0.18094,1.0178,0.60969,-0.15548,-1.4818,-0.86972,0.68615,0.27807,0.91577,-0.027944,-0.33399,0.38008
-0.84415,-0.46157,0.96678,0.30359,-0.15548,-0.89517,-0.5126,0.89022,0.09954,0.048536,-0.92067,-0.41054,1.0943,0.38012,-0.12999,-0.89514,-0.38505,0.91575,0.25259,-0.13,-0.86967,-0.53809,0.7117,0.17606,-0.15548,-0.81867,-0.43607,0.99225,0.15056,-0.078977,-0.71663,-0.43604,1.0688,0.2271,-0.078959,-0.9972,-0.64011,0.78821,0.15055,-0.027974,-0.69112,-0.64011,0.91576,0.17607,-0.12996,-0.81865,-0.28305,0.81371,0.12508,-0.13002,-0.66561,-0.4616,0.96677,0.2016,-0.15545,-0.81864,-0.25754,0.55868,0.30359,-0.079008,-0.86967,-0.41058,0.86471,0.20158,-0.078959,-0.81865,-0.23203,0.7117,0.30358,-0.18102,-0.71663,-0.6401,1.1198,0.43115,-0.078953,-1.0227,-0.5636,0.96675,0.25263,0.12504,-0.86966,-0.4361,0.60969,0.20159,-0.33398,-1.1247,-0.35958,1.2218,0.53312,0.048543,-1.0737,-0.56341,1.1707,0.53296,0.81382,-0.89507,-1.4818,-0.43606,0.99227,0.22707,-0.71668,-0.61467,1.0688,1.0178,0.3036,-1.3287,-0.61463,0.074026,0.07402,0.66073,-0.25751,-0.25753,0.96674,-0.20653,-0.84419,-1.7114,-0.48703,1.3494,0.32913,-0.078984,-0.74213,0.38017,2.0891,0.58421,-0.33404,-0.053476,-0.41058,-0.94625,-1.3289,-1.0738,-0.89519,0.15059,1.4004,0.023029,1.7321,0.25259,0.94133,1.1453,-0.18096,-0.69119,-1.4309,-2.1705,1.3239,0.55864,-0.4361,-1.0227,-0.23206,0.99223,0.32908,0.22701,-0.74216,-0.94603,0.32918,-0.97168,1.2475,0.96666,-0.30849,0.099485,-0.74212,-0.30855,-1.2013,-0.20652,1.1708,0.27811,-1.5583,-1.6859,-1.9155,3.1093,2.3187,1.2474,-0.97172,-0.99723,0.38016,-0.46156,-0.18101,-1.1248,-0.25751,0.20155,0.40569,0.50759,-0.92073,-0.94619,0.86472,0.023005,0.17616,-0.30851,-0.58909,-0.43618,0.17609,1.9361,0.50768,-0.51263,-0.20665,0.023035,-0.20646,-0.86963,-0.79315,0.76266,0.35462,0.53326,-1.0227,-0.99724,0.94128,1.171,0.048536,-2.5022,-1.431,1.1963,0.83934,0.43118,-0.053433,0.099601,0.86467,-0.18106,-0.43609,-1.5072,-1.2013,1.4259,1.1454,0.73726,-1.2778,-0.61467,0.48211,-0.23206,-0.053446,-0.97169,-0.053446,1.0433,-0.20652,-1.1504,-0.84419,0.32918,1.7065,0.8138,0.40566,-1.2523,-0.002491,1.8341,1.1709,-1.839,-3.2164,-1.4309,1.4004,1.0434,0.83933,-0.66555,-0.1045,0.91571,0.7628,0.27817,-1.2013,-1.4309,0.63511,-0.078941,0.074093,-0.76763,-0.4106,0.3801,0.099534,0.32908,-0.48706,-0.53807,1.1453,0.94133,0.91583,-1.7369,-2.4256,0.7116,0.96674,0.81378,-0.81855,-0.38498,1.5789,0.12502,-0.86969,-0.89518,-0.99728,0.58411,0.32912,0.20156,-0.10443,-0.1555,0.074013,-0.46156,0.50768,-0.79312,-0.30855,1.2473,0.32907,0.25261,-0.33401,-0.71659,0.50759,-0.51265,-0.10447,-0.76764,-0.25754,1.5279,0.89024,-0.30851,-1.3543,-0.43606,0.76269,0.048549,0.048585,-1.4819,0.1506,2.1656,0.83926,-1.1758,-2.0685,-0.89516,1.3494,0.30361,-0.027962,-1.2012,0.048543,1.4003,0.40562,-0.053495,-1.2012,-0.4361,0.99226,-0.078935,0.12511,-1.2778,-0.84417,1.0688,0.55864,-0.028036,-1.0483,-0.74215,1.0943,0.58418,0.53317,-1.0991,-0.53809,0.38011,0.074013,0.12505,-0.81866,-0.48707,1.4769,0.76276,-0.078984,-0.61457,-0.41055,0.71165,0.3801,-0.51259,-1.7879,-1.0482,1.4769,0.63518,-0.436,-0.69106,-0.20649,0.63511,0.022956,0.45663,-0.00235,-0.18103,0.63515,-0.13002,-0.46156,-1.0227,-0.3595,0.78823,0.38006,-0.079026,-1.1502,-0.46161,1.1198,0.76274,-0.027895,-0.97161,-0.15548,1.5279,-0.13,-0.81871,-1.6859,-0.38502,1.834,0.32913,-0.002467,-1.5584,-0.58916,0.58414,0.38012,1.2474,-0.48703,-2.1961,0.91572,1.2219,0.94133,-1.0992,-0.89516,0.9412,0.55867,-0.28306,-1.0736,-0.56351,1.1198,0.22702,0.12501,-0.84417,-0.86966,0.7627,-0.15551,-0.61463,-0.74223,-0.48706,1.9106,0.45672,-0.20656,-1.8899,-0.76772,2.0891,0.30368,-0.12999,-1.1248,0.15059,0.81368,-0.002485,0.15062,-0.71657,-0.30854,0.89025,0.35465,-0.12998,-1.3543,-1.0227,0.91569,0.83925,-0.027993,-0.86962,-0.64011,0.78825,0.55867,0.12502,-0.56369,-0.38502,0.73727,0.048494,-0.20646,-1.0227,-0.10457,1.2218,0.17614,-0.35942,-0.86974,-0.69115,0.63518,0.71179,0.30359,-1.2013,-1.3544,0.63511,0.66075,0.40562,-0.89517,0.20167,1.7575,0.71176,-0.53805,-1.2778,-0.79316,0.8137,0.048555,-0.18106,-0.79316,-0.66564,0.78818,-0.002472,-0.12998,-0.6146,-0.053476,1.2728,0.2526,0.50762,-1.0737,-0.94621,0.7117,0.40564,0.55875,-0.58903,-0.74208,0.32904,-0.053451,-0.053506,-0.89522,-0.69113,0.60962,0.27812,0.25261,-1.2013,0.09957,1.5024,0.48221,0.22712,-0.76763,-0.46155,1.1708,0.12506,-1.0482,-1.2778,-0.43613,1.1452,0.12505,-0.5381,-1.0992,-0.25748,1.2218,0.55865,-0.10446,-0.69112,-0.43603,1.0178,0.89024,-0.33409,-1.5584,-0.56358,1.2474,0.76275,-0.12999,-1.2523,-0.20655,0.89018,0.22707,0.048536,-0.69108,-0.56358,0.7117,0.20159,0.048536,-1.0737,-0.027993,0.6862,-0.28306,-0.053506,-0.25746,-0.30854,0.68622,0.17607,0.22708,-0.64013,-0.41057,0.94122,0.023029,-0.38505,-0.6146,-0.2575,0.96677,0.25264,-0.5126,-1.1758,-0.3086,1.4003,0.25261,0.48218,-0.6911,-0.69108,1.0177,0.32912,-0.51255,-1.3798,-0.30856,0.89023,0.43115,0.30363,-0.92067,-0.3851,1.2474,0.3036,-0.97173,-1.2523,-0.15553,1.2983,-0.002448,-0.28305,-0.74206,-0.12993,1.0943,-0.13006,-0.56361,-0.61458,0.099564,1.4004,0.53318,-0.56362,-0.97168,-0.07899,1.2728,0.20162,-0.10449,-0.97171,-0.053458,0.5331,-0.027974,0.20156,-0.56353,-0.56361,0.73722,0.35459,-0.053446,-0.94616,-0.41057,1.1453,0.25261,0.2271,-0.9972,-0.4871,1.0178,0.48214,-0.81874,-1.2778,-0.33402,1.9361,1.2474,0.074026,-1.6604,-1.3799,1.1453,0.38018,-0.43604,-0.61454,0.40568,1.0688,0.25256,0.20158,-0.89522,-0.99721,1.1453,0.89027,-0.48712,-1.839,-0.46155,1.0688,0.53318,0.68617,-0.30851,-0.48708,0.66069,-0.027931,0.30358,-0.89519,-0.79322,0.71171,0.12508,-0.079002,-0.58904,-0.41057,1.0688,0.91573,0.58417,-0.58909,-0.38508,0.60966,-0.15545,0.25262,-1.3543,-2.0176,0.86475,1.0944,0.20163,-1.1247,-0.25751,1.0688,0.48213,0.60958,-0.79316,-0.53808,1.0433,-0.1045,-0.15549,-0.35951,-0.5126,0.27805,0.0485,0.07402,-1.1247,-0.25751,1.2218,0.66073,-0.51257,-0.53803,-0.38503,1.0433,-0.10461,-0.2321,-0.79315,-0.07891,1.0688,0.20156,0.15062,-1.2013,-1.0482,1.2473,0.86477,0.15057,-0.46157,-0.181,1.1708,0.40567,-0.28303,-1.3033,-0.86974,0.50761,0.40563,0.30366,-0.84415,-0.71665,0.73721,0.58419,-0.027956,-0.86971,-0.43609,1.4003,0.76277,0.32913,-0.74208,-0.79304,0.83921,-0.56362,-0.58917,-0.97172,0.17609,1.6044,-0.15554,-0.20654,-0.10443,0.38015,1.5024,0.32908,-0.28303,-1.9409,-0.69111,0.68619,-0.028023,-0.053544,-0.5891,-0.28295,1.0943,0.50767,0.40564,-0.51257,-0.51264,0.76272,0.40563,0.12509,-1.4053,-1.0737,1.4514,0.60961,-0.25753,-1.3287,-0.078972,1.2474,0.6862,-0.51266,-1.3033,-0.283,1.4258,-0.15553,-0.053488,-0.86964,-0.002461,1.4004,0.38013,-0.25753,-0.92068,-0.66563,0.71169,0.20156,0.099577,-0.97166,-0.64013,1.1453,0.94128,-0.079008,-1.0482,-0.53807,1.2218,-0.002405,-0.23202,-0.53807,0.048512,1.1963,0.22707,-0.35959,-1.0992,-0.43605,1.3238,0.40568,0.27812,-1.0992,-0.51258,0.99225,-0.002516,0.023041,-0.6656,-1.0737,0.50762,0.17604,0.20161,0.074111,-0.027962,1.2983,0.38013,-0.46161,-0.97168,-0.28299,0.94124,0.22711,-0.43605,-1.2268,-0.28307,0.78821,0.53315,0.25251,-0.7421,-0.28302,0.89024,0.25264,-0.23195,-0.94613,-0.15548,1.1198,0.76272,0.53315,-1.5584,-1.4819,1.3239,0.81381,0.50774,-1.0227,-0.23207,0.96675,0.17607,-0.078977,-0.69106,-0.89522,1.0943,0.40563,-0.56362,-1.5073,-0.28304,1.1453,0.3036,0.20159,-0.61458,-0.35951,1.4259,0.048549,-0.38505,-1.0737,-0.58911,1.3493,0.76269,0.074069,-0.92064,-0.43603,0.60961,-0.15554,0.15059,-0.53807,0.048592,1.2218,0.38011,-0.41061,-0.94612,-0.41058,0.35459,0.81374,0.099583,-0.84417,-0.79316,0.91572,0.45664,0.20161,-0.6146,-0.20645,0.99228,0.38013,-0.053451,-0.79317,-0.56362,0.99223,0.38008,-0.027998,-0.64011,-0.74211,0.76275,0.60962,0.25255,-0.84417,-0.283,1.0688,0.50772,-0.61465,-1.992,-0.51257,1.3494,0.60968,0.43112,-0.15549,-0.43611,0.60963,0.27811,-0.027969,-0.58905,-0.35954,0.96677,0.2526,0.12512,-0.94619,-0.64013,0.8392,0.048476,-0.10448,-1.1502,-0.30851,1.1453,0.43116,0.048555,-0.81864,-0.15554,1.1453,0.30361,-0.3341,-0.86974,-0.15546,1.4005,0.73723,-0.56358,-1.9409,-0.86974,1.0687,1.0433,0.30364,-0.66561,-0.64006,1.0178,0.53317,-0.23201,-0.97172,-0.15552,1.4514,0.50768,-0.15549,-0.7166,-0.7422,0.91574,0.27811,-0.33401,-0.97171,-0.84418,0.78819,0.48219,0.12508,-0.48711,-0.10447,1.0433,0.40566,-0.053482,-1.3288,-0.64014,0.81373,0.78826,0.40564,-0.9207,-0.76766,0.71171,0.81376,0.22713,-1.1757,-0.56359,0.99223,0.45662,-0.13002,-0.89518,-0.027944,1.3239,-0.028011,-0.38506,-0.69112,-0.25751,0.8137,0.17607,0.074026,-0.5636,-0.12995,1.3239,0.68621,-0.10449,-0.92071,-0.46159,0.68621,-0.053476,-0.4361,-1.0227,-0.23204,1.4004,0.45663,-0.35957,-0.69115,0.12505,0.9668,0.15062,0.22709,-0.23202,-0.078935,0.58416,-0.20653,-0.15546,-0.89516,-0.69116,0.91572,0.78821,0.048536,-1.0992,-0.43604,1.5024,0.73721,-0.078972,-1.4563,-0.79317,1.1963,0.60965,-0.181,-0.33404,0.074051,0.96676,-0.027956,-0.12995,-0.41054,-0.28302,1.0177,0.17607,-0.002491,-1.0228,-0.61462,1.5534,0.86475,-0.18095,-1.0992,-0.92069,1.4004,0.68621,-0.20652,-0.66562,-0.2065,0.60963,0.023029,-0.12996,-0.61457,-0.23204,1.0178,0.60967,0.023017,-0.84416,-0.33403,1.0433,0.12507,-0.35957,-1.0482,-0.20653,1.1453,0.30362,0.12507,-0.64012,-0.41054,1.0943,0.38019,0.023065,-1.2268,-0.2066,1.1197,0.55869,-0.002443,-0.69111,-0.35953,0.73718,-0.33409,-0.33406,-0.7166,-0.002423,1.1963,0.35463,0.17605,-0.66561,-0.56364,0.99228,0.76276,-0.48708,-1.0737,-0.30856,0.96676,0.3546,-0.18102,-0.20646,-0.12998,0.91573,0.20155,-0.30849,-1.0737,-0.71664,0.83923,0.53312,-0.002491,-0.56362,-0.10447,1.2219,-0.002412,-0.23202,-0.76765,-0.002479,1.0433,0.40564,-0.053495,-0.46157,-0.23201,0.45658,-0.66566,-0.58911,-0.33399,0.25262,1.0688,0.78819,0.5587,-0.84412,-0.35956,0.91573,0.12506,-0.18101,-1.4308,-0.43609,1.2729,0.30355,-0.15556,-0.97173,-0.76759,0.99227,0.40564,0.02309,-0.79316,-0.10455,1.2473,0.38015,0.17607,-0.92062,0.048567,0.89025,0.48212,-0.56362,-0.86971,-0.12999,1.0943,0.2526,0.023029,-0.71662,-0.46156,0.91585,0.91578,0.048543,-1.0738,-0.28308,0.96674,0.63518,-0.232,-1.2778,-1.4564,0.76266,0.50767,0.30368,-0.33399,0.023072,1.0688,0.45667,0.12504,-0.66566,-0.43609,1.0432,-0.30852,0.048598,-0.69114,-0.97175,0.91576,0.45663,0.15059,-0.23202,-0.51256,0.81368,0.43117,0.40568,-0.61461,-0.35956,0.78818,0.43108,0.023041,-0.7166,-0.46153,1.0943,0.6607,0.099601,-0.9462,-0.28304,0.96678,0.15054,-0.027969,-1.0737,-0.35954,0.55864,0.43113,0.12507,-0.56361,-0.51258,0.91576,0.53317,0.17602,-0.97164,0.048549,0.76275,0.15054,-0.28304,-0.89515,-0.23204,1.1453,0.38008,-0.18101,-0.51258,-0.28299,0.99224,0.35463,0.2016,-0.84414,-0.35956,0.78818,0.40565,-0.30859,-0.86967,-0.20648,0.91576,0.53315,-0.18097,-0.79317,-0.56362,1.1708,0.35465,-0.23205,-0.94617,-0.18101,1.0178,0.17604,-0.30854,-0.74214,0.023047,1.0688,0.32914,-0.078984,-0.71659,-0.15548,1.2218,0.38014,-0.25753,-1.3287,-0.66565,1.1453,0.71171,-0.13004,-1.0737,-0.71659,0.99225,0.71176,0.45667,-0.69111,-0.41058,0.66065,0.5587,-0.002485,-0.86966,-0.18101,1.0688,0.43114,0.27812,-0.76762,-0.58911,0.78818,0.22706,-0.079033,-1.1758,-0.48707,1.1199,0.48219,0.20157,-0.5126,0.023023,0.7117,0.27809,0.27811,-0.66559,-0.79313,0.55864,0.78822,0.38011,-0.58908,-0.84417,0.83921,0.38017,-0.027944,-0.79313,0.04858,0.58414,-0.28308,-0.41057,-0.97171,0.32911,1.783,0.8902,-0.18097,-0.51261,-0.43605,0.66064,-0.23201,-0.56358,-0.74211,-0.002479,1.4258,0.60967,0.023047,-0.7676,-0.15549,1.1198,0.17609,0.1251,-1.4308,-0.53815,0.94119,0.50762,0.35464,-0.25749,-0.30852,0.73715,0.099534,-0.33408,-0.64006,0.40563,1.2218,0.30363,-0.51259,-0.89518,-0.30849,0.78821,-0.20654,-0.10451,-0.33401,0.20155,1.0178,0.3291,-0.053476,-1.0227,-0.38503,0.94129,0.50766,0.023059,-0.97171,-0.28305,1.0177,0.40563,-0.002467,-0.74212,-0.15545,0.89019,-0.15551,0.048598,-0.48705,0.12507,0.099515,0.074038,0.30364,-0.35953,-0.25753,0.68621,-0.0535,0.40565,-0.5636,0.074069,1.0177,0.2526,-0.4106,-0.64014,-0.30855,0.86478,0.43115,0.12508,-0.35958,-0.43606,0.63516,0.099552,-0.027962,-0.61462,-0.23199,0.83923,0.6862,0.074057,-0.94616,-0.002467,1.1453,0.17603,-0.89522,-0.6146,-0.15549,1.0688,0.48218,-0.002423,-0.74215,-0.25754,1.2983,0.22706,-0.7422,-0.58913,-0.10449,0.94131,0.9413,0.4312,-0.51258,-0.6146,0.81372,0.48216,-0.3341,-0.97176,-0.33404,0.38008,0.40567,0.22712,-0.84414,-0.28306,1.0943,0.58422,-0.079008,-0.94617,-0.5126,0.71171,0.22708,0.12511,-0.41051,0.022992,1.0687,0.55867,0.15059,-1.4564,-1.1248,0.94127,0.63523,0.38017,-0.64009,-0.13002,0.76269,0.43112,-0.07899,-0.79314,0.1506,1.1453,0.17605,-0.6657,-1.0737,0.20161,1.0688,0.86479,0.074038,-0.56359,-0.15557,0.89026,0.38008,-0.33401,-1.1757,-0.43606,0.7117,0.4056,-0.053476,-0.61462,-0.20651,0.99222,0.17609,0.60975,-0.35949,-0.66568,-0.1811,0.12503,0.15062,0.074106,-0.002418,1.3239,0.66072,-0.28303,-0.97167,-0.43611,0.73718,-0.13005,0.074069,-0.38506,-0.20649,0.78823,0.38011,-0.12996,-0.89519,-0.38509,0.94125,0.45662,-0.027998,-0.66562,-0.46154,0.91576,0.40563,-0.053433,-0.76769,-0.05347,0.76272,0.27808,0.20158,-0.84415,-0.35951,0.89023,0.78824,0.099564,-0.48705,-0.56364,0.15049,0.074026,0.27813,-0.38504,0.099595,0.96674,0.66072,0.22711,-0.64008,-0.46161,0.66067,-0.027993,-0.25755,-0.81866,-0.48709,0.83921,0.32912,-0.25751,-0.46154,0.04861,1.1708,0.17606,0.17603,-0.81867,-0.053446,0.81375,0.63523,-0.002491,-0.6656,-0.74216,0.35458,0.55866,0.048506,-0.38503,-0.35959,0.73725,1.0688,0.12513,-1.0482,-0.33405,1.1198,0.25257,0.023047,-1.0993,-0.43607,1.2729,0.60969,-0.23203,-0.97171,-0.33404,0.7372,0.32914,0.25259,-0.30851,-0.46159,0.35458,0.32908,0.074069,-0.10443,-0.1555,0.73723,0.48214,-0.15551,-0.84421,-0.69115,1.0688,0.53318,0.20164,-0.81861,-0.25752,0.30355,0.66069,0.76269,-0.283,-0.58914,0.099528,0.3291,0.023103,-0.86962,-0.18102,1.2728,0.45662,-0.079014,-1.3798,0.048561,1.0178,0.91581,0.099608,-1.0737,-0.46165,0.86471,0.074062,-0.3341,-0.64007,-0.30851,0.96679,0.66068,-0.027938,-0.79315,-0.18102,1.1963,0.58419,-0.20658,-0.94621,-0.38508,0.7117,0.7627,0.43121,-0.81866,-0.38504,0.07402,0.81375,1.0434,-0.61462,-1.89,-0.15559,0.86475,0.55872,-0.53803,0.20161,1.1453,0.76268,-0.053544,-0.30859,-0.46153,0.40564,0.17607,-0.002387,-0.58908,-0.002491,0.60966,0.17604,-0.13004,-0.5381,-0.20649,0.7627,0.20158,-0.02792,-0.53811,0.76274,1.5279,-0.3341,-1.941,-1.1503,0.02309,1.5024,1.0179,0.4567,-0.33401,0.76275,0.7627,-0.74221,-0.79322,-0.66569,0.074038,0.96674,0.45669,0.20161,-0.078947,-0.56359,0.55868,0.15054,-0.20654,-0.64011,-0.30856,0.60963,0.09957,0.40569,-0.25752,0.074057,1.2473,0.25259,-0.86971,-1.1757,-0.027962,1.2729,0.30363,-0.079008,-0.56359,0.32912,1.0433,0.55869,-0.027998,-1.3543,-0.5891,0.71171,0.71172,0.15059,-0.71662,-0.33408,0.45663,0.30357,0.074062,-0.66561,-0.002443,0.32912,0.40563,0.32918,-0.43607,-0.53812,0.81367,0.27811,-0.25754,-0.99718,-0.28303,1.1198,0.71174,0.35467,-0.84414,-0.12998,0.86472,0.17604,-0.56364,-0.53812,0.27815,1.0178,0.12505,-0.56361,-0.89518,-0.20653,0.86473,0.71173,0.15059,-0.43603,-0.20653,0.66069,0.25257,0.048549,-0.53811,-0.35955,0.73716,0.30361,0.023035,-0.46157,-0.23199,0.58417,0.38014,-0.18103,-0.61462,-0.1555,0.66074,0.074057,-0.10455,-0.35953,-0.002472,0.83927,0.17607,-0.15551,-0.38508,0.099577,0.73718,0.40568,0.074044,-0.64011,-0.41054,0.53317,-0.079021,-0.38504,-0.51258,0.023059,0.71168,0.50763,0.20158,-0.48708,0.099601,0.66067,0.53319,0.35462,-0.12995,-0.41057,0.30358,-0.053506,-0.28305,-0.58912,-0.30852,0.76271,0.43117,0.20156,-0.79312,-0.13,0.71167,0.3546,0.099588,-0.41056,-0.43607,0.50767,0.48216,0.20158,-0.66565,-0.71666,0.60968,0.94129,0.40562,-0.30855,-0.48704,0.58418,0.17606,-0.027944,-0.97174,-0.38506,0.76272,0.6862,0.15056,-0.46158,-0.33402,0.50762,0.50773,0.30359,-0.84414,-0.28311,0.55862,0.099564,-0.078953,-0.69108,-0.027993,0.60968,0.30361,-0.41052,-0.053544,0.22706,0.45661,-0.1555,0.20161,-0.23197,0.30366,1.2728,-0.25757,-0.46157,-0.46152,0.023029,0.63514,0.3291,0.048573,-0.66565,-0.33402,0.96678,0.40562,-0.64013,-1.3543,-0.76769,0.81369,1.0178,0.5587,-0.181,-0.078953,0.50764,0.48218,0.2781,-0.7421,-0.51265,0.5076,0.43112,0.35464,-0.61458,-0.58911,0.38016,0.43116,0.35461,-0.38501,-0.30854,0.20153,0.20158,-0.053519,-0.38507,-0.35951,0.38018,0.76273,0.17607,-0.38506,-0.15554,0.78822,0.45665,-0.053495,-0.41058,-0.51257,0.53314,0.53317,-0.25751,-0.66562,-0.41052,0.78821,0.48212,0.07402,-0.94622,-0.18097,0.78824,0.40566,0.30364,-0.64014,-0.38506,0.48213,0.81373,0.17612,-0.53812,-0.33404,0.20159,0.3546,-0.20655,0.17612,-0.07899,0.45661,0.38013,-0.002467,-0.181,-0.97171,0.43112,0.53316,0.45669,-0.5381,0.048555,0.58413,0.099583,-0.20651,-0.5636,-0.35954,1.0433,0.96674,0.20162,-0.76762,-1.0228,-0.3851,0.38014,0.48211,-0.002448,-0.12997,0.9413,0.63523,-0.25749,-1.1247,-0.25753,0.32902,0.73719,0.68624,0.17614,-0.74216,0.50766,0.22707,-0.35957,-0.35954,-0.18103,0.53314,0.40563,-0.053439,-0.61463,-0.05347,0.81373,0.20155,-0.027969,-0.30847,-0.28308,0.50768,0.6352,0.32912,-0.56361,-0.46159,0.48212,0.63517,0.15066,-0.53807,-0.079002,0.20155,-0.02798,-0.13004,-0.30853,-0.61461,0.63521,1.0178,0.32915,-0.33402,-0.10452,0.76273,-0.43613,-1.1758,-0.92074,-0.3085,0.78827,1.3239,1.2729,0.099626,-1.1758,0.125,0.15054,-0.38512,-0.5126,-0.027944,0.78826,0.91575,-0.23202,-0.71665,-0.20647,0.3546,0.023023,-0.4616,-0.5381,-0.35954,0.89022,0.76277,0.2271,-0.43605,-0.35957,0.38013,0.45664,-0.027987,-0.30854,0.27809,0.25259,0.074062,-0.48715,-0.9462,-0.002454,0.96677,1.1709,0.30363,-0.79316,-0.86968,0.17604,0.55869,0.35464,-0.10445,0.074087,0.58416,0.55867,0.27805,-0.76763,-0.69113,0.38012,0.53309,-0.30856,-0.58908,-0.4871,0.30363,0.50762,-0.30852,-0.283,0.023059,0.55869,0.60968,0.63523,-0.15552,-0.46158,0.074002,0.02301,0.2016,-0.41057,-0.53809,0.6352,0.73723,0.25261,-0.027913,-0.48705,0.12502,0.17605,-0.46161,-0.71665,-0.25751,0.78824,0.76273,0.15059,-0.33403,-0.4616,0.25259,0.48214,0.32907,-0.76766,-1.0227,0.12505,0.32915,0.27814,-0.25755,-0.10449,0.86474,0.27808,-0.1045,-0.51262,-0.35954,0.20158,0.60968,0.17613,-0.12995,-0.33404,0.53312,0.48216,0.048549,-0.053464,0.099577,0.15055,-0.002491,-0.38506,-0.69115,-0.53809,0.53312,0.66071,0.12506,-0.25753,-0.18099,0.48218,0.45663,-0.25749,-0.46156,-0.35959,0.55864,0.4056,0.074075,-0.15548,-0.33397,0.35461,-0.25761,-0.20657,-0.38503,-0.18098,0.83925,0.68619,-0.13,-0.12998,-0.02795,0.099546,0.099521,0.048573,0.048585,-0.12997,0.50764,0.3036,-0.53814,-0.71662,-0.35955,0.40563,0.4311,-0.1555,-0.43606,-0.05347,0.71173,0.48213,-0.002491,-0.66562,-0.43602,0.6352,0.89027,0.099588,-0.25751,-0.33409,0.20155,0.12506,-0.12998,-0.35954,-0.5636,0.48214,0.7372,0.17609,-0.078935,-0.13,-0.028018,-0.38512,-0.3851,-0.20647,0.27814,0.40567,0.71172,-0.20651,-0.15548,-0.33406,0.30361,0.58414,-0.078984,-0.25753,-0.53811,-0.027987,0.27807,0.15058,-0.18101,0.15063,0.30361,0.30358,-0.33412,-0.71665,-0.2065,0.58423,0.45669,0.2781,-0.10447,-0.33402,0.35463,0.60962,0.09954,-0.5126,-0.61457,0.15056,0.20159,0.15058,-0.35954,-0.0535,0.3291,0.048494,-0.1045,-0.66565,-0.25751,0.78827,1.2219,0.27813,-0.23198,-0.38507,0.27808,0.40558,-0.43609,-0.92067,-0.5636,0.40562,0.68623,0.2781,-0.48706,-0.23202,0.4056,0.53315,-0.027993,-0.46156,-0.385,0.35463,0.2271,-0.028036,-0.33403,-0.38503,0.43113,0.76273,0.20157,-0.48707,-0.10447,0.074093,0.27806,-0.71665,-0.38506,0.17607,0.94128,1.0943,-0.30857,-0.71667,-0.23202,0.43117,0.76274,-0.15549,-1.0227,-0.48711,0.66073,0.48213,-0.38508,-0.56359,-0.23201,0.60967,0.45664,-0.15553,-0.41055,-0.64012,0.38013,0.60971,0.30361,-0.23203,-0.232,0.2016,0.50765,-0.15547,-0.35957,-0.43605,0.45662,0.91573,-0.027993,-0.76766,-1.4819,0.25262,0.83928,0.35467,-0.30853,-0.35955,-0.002497,0.81375,-0.13,-0.23204,-0.41056,0.66069,0.60967,0.074087,-0.53806,-0.38508,0.58412,0.099521,-0.23201,-0.56356,-0.25751,0.17605,0.63518,0.27802,-0.30851,-0.71658,0.17608,0.40567,0.074026,-0.079008,-0.15551,0.25257,0.48218,-0.053446,-0.13,-0.71664,0.25257,0.45662,-0.13002,-0.33406,-0.23198,0.38013,0.96679,0.60972,-0.71663,-0.8952,0.38015,0.48213,0.074038,-0.078984,-0.66562,0.1251,0.50766,-0.078977,-0.53812,-0.58909,0.32906,0.50763,0.099577,-0.48708,-0.38503,0.30365,0.89024,0.074062,-0.002461,-0.38506,-0.33409,0.30357,0.22708,-0.12994,-0.078947,0.73727,0.40561,-0.97172,-0.84421,-0.51259,0.81374,0.7117,0.43113,0.099577,-0.51259,-0.1555,0.48215,-0.10448,-0.30853,-0.38503,0.12507,0.55866,-0.027987,-0.10451,-0.61457,0.07402,0.45666,-0.002485,-0.38503,-0.15549,0.25258,0.38011,0.2781,-0.23205,-0.81867,-0.20653,0.20159,0.17611,-0.00243,-0.10444,0.89026,0.81372,-0.23202,-0.79317,-0.46158,-0.33405,0.71168,0.43113,-0.25751,-0.92069,-0.20653,0.63515,0.25259,0.12506,-0.15546,0.2271,0.40566,-0.1045,-0.5891,-0.23204,0.2271,0.63519,-0.18101,-0.53813,-0.18103,0.17609,0.68622,-0.1555,-0.38503,-0.43608,0.17607,0.50763,-0.10455,-0.25753,-0.53806,0.15058,0.55868,0.22712,-0.69111,-0.23201,0.35461,0.76269,0.023035,-0.79318,-1.0738,0.20159,0.73723,0.38017,0.40568,0.22715,0.02301,-0.76777,-0.69122,-0.30855,0.12512,0.48218,0.91579,0.32913,-0.027882,0.17604,-0.15553,0.12504,-0.48708,-0.43609,-0.81868,-0.18103,0.32912,0.22711,-0.15548,-0.13002,0.15054,0.27807,0.40566,0.023041,-0.48705,-0.10449,0.45665,0.1506,-0.46156,-0.18095,0.38011,0.099528,-0.46164,0.023035,-0.35948,0.22712,0.94126,0.58421,-0.48706,-0.86968,-0.027987,0.35459,-0.13002,-0.18101,-0.38506,-0.002448,0.66069,-0.12996,-0.283,-0.35957,-0.00251,0.12504,0.43113,0.32918,0.023029,-0.13003,0.45664,0.048585,-0.43606,-0.30855,-0.053482,0.48213,-0.027956,-0.35959,-1.0737,0.048536,0.81374,0.40565,-0.002412,-0.181,0.2526,0.48213,-0.15553,-0.76767,-0.61461,-0.20652,0.89027,0.30361,0.048592,-0.43609,0.09954,0.81374,0.048536,-0.61465,-0.74212,-0.15553,0.81375,0.25262,-0.41052,-0.53809,-0.002479,0.7882,0.43112,-0.079008,-0.71667,-0.181,0.40565,0.12506,-0.181,-0.38503,-0.20651,0.60965,-0.079008,-0.2065,-0.51257,0.38016,0.76273,-0.079002,-0.66565,-0.7677,0.099577,0.78823,0.17609,-0.079002,-0.53806,0.40568,1.4259,-0.027969,-0.46159,-0.71665,-0.23207,0.40561,-0.15554,-0.13002,-0.02795,-0.15548,0.15059,-0.46157,-0.1555,-0.10452,0.40564,0.63519,0.074051,-0.13,-0.5891,0.12511,0.81373,0.12504,-0.46157,-0.43606,-0.10449,0.58419,0.4056,-0.053525,-0.71668,-0.84414,0.60968,0.25263,0.27812,-0.74215,-0.0535,0.91576,0.35462,-0.89522,-1.1758,-0.00243,1.3749,0.83925,-0.41055,-0.71663,-0.18103,0.45666,0.048525,-0.053476,-0.48708,-0.41059,0.38011,-0.23205,0.048585,-0.33401,0.023059,0.66075,0.53315,0.17607,-0.71665,-0.46167,0.38013,-0.13001,-0.078953,-0.15552,-0.078966,0.27817,-0.002454,0.30358,-0.64014,-0.35956,0.15055,0.38013,-0.20649,-0.51255,-0.23202,0.55867,0.73724,0.074038,-0.74212,-0.46155,0.50764,0.20159,-0.28303,-0.41057,0.30356,0.83924,0.22708,-0.25753,-0.6656,-0.56361,0.43113,-0.027944,-0.25753,-0.53809,-0.002467,0.68616,0.074057,-0.20649,-0.38505,-0.078977,0.76271,-0.002461,-0.00243,-0.51257,-0.10452,0.45662,-0.078959,-0.33404,-0.48711,0.048525,0.83925,0.023059,-0.48706,-0.6146,0.25256,0.96678,0.48215,-0.23204,-0.76764,-0.61462,0.22705,-0.38502,-0.002436,-0.48708,-0.15552,1.0178,0.48213,0.25261,-0.35952,-0.46153,0.53316,0.17609,-0.25751,-0.58911,-0.079002,0.32912,0.12503,0.022998,-0.61466,-0.41054,0.5842,-0.2065,-0.10446,-0.46159,-0.12996,0.83922,-0.05347,0.023059,-0.51262,0.12507,0.55866,-0.15548,0.12509,-0.25748,-0.23204,0.3036,-0.35961,-0.05347,-0.58913,-0.15546,1.0688,0.4567,0.074057,-0.48711,-0.43609,0.17607,-0.18101,-0.33406,-0.56361,-0.48708,1.0688,0.40568,-0.35956,-1.2523,-0.51257,1.0688,0.35465,0.25256,-0.35954,-0.38509,0.32914,-0.23201,-0.43604,-0.15549,0.58422,0.73717,-0.46162,-0.81874,-0.38505,-0.053439,1.0178,0.30364,-0.28298,-0.69116,-0.33404,0.35456,0.15059,-0.15551,-0.43606,-0.35953,0.89026,0.30358,-0.38502,-0.53811,-0.15548,0.73718,-0.1045,-0.078984,-0.66564,-0.41057,0.22712,-0.027925,0.023023,-0.23201,-0.028005,0.94127,-0.079002,-0.25757,-0.84419,-0.12993,0.6352,0.43116,-0.18099,-0.51257,0.27808,0.68621,0.023035,-0.43611,-0.56359,-0.15548,0.63521,0.023047,-0.48708,-0.51262,-0.23201,0.32914,0.20158,-0.053476,-0.28306,-0.53804,0.53315,0.2781,0.023017,-0.79316,-0.15552,0.78823,0.048567,-0.43609,-0.58908,-0.18095,0.68622,0.15055,-0.053451,-0.41054,0.074033,0.55864,0.12504,-0.41057,-1.0737,-0.97169,0.30356,0.43119,0.50769,0.023078,0.25265,0.94125,0.023035,-0.20652,-0.5636,-0.66563,0.32907,-0.38506,-0.30855,-0.28302,-0.13,0.71167,-0.12999,-0.30858,-0.74209,-0.23201,1.0687,0.35465,-0.20649,-0.43606,0.023035,0.86472,0.099546,-0.078984,-0.8186,-0.61456,0.27809,-0.002479,-0.078977,-0.20653,-0.053476,0.53311,0.022992,-0.181,-0.74214,-0.35952,0.94128,0.099595,0.023065,-0.53811,-0.35954,0.81368,-0.028011,-0.15548,-0.71664,-0.51257,0.50762,0.099559,-0.12998,-0.46157,-0.20648,0.48213,0.20161,0.12506,-0.5381,-0.48707,0.58419,0.12508,-0.23203,-0.46157,-0.23206,0.45661,0.09954,-0.12997,-0.25753,-0.53807,0.68624,0.1506,-0.15551,-0.99721,-0.1555,1.4259,0.4056,-0.23204,-0.97171,-0.56356,0.20158,-0.28305,-0.33406,-0.43607,0.35465,1.0178,0.58419,0.074038,-0.74213,-0.51257,0.60965,0.30365,-0.12998,-0.46161,-0.53812,0.38006,0.074033,-0.33405,-0.61461,-0.46152,1.0433,-0.002461,-0.41056,-1.0737,-0.38505,0.9923,0.53313,-0.027969,-0.76764,-0.5891,0.7117,0.43116,-0.20649,-0.84412,-0.71663,0.68613,0.48212,-0.15553,-0.30848,-0.30851,0.73722,-0.28303,-0.41055,-0.71665,-0.027969,1.0943,-0.027974,-0.38509,-0.51256,-0.43604,1.0178,0.40566,-0.28304,-0.79315,-0.38508,0.76269,0.17604,0.023023,-0.69111,-0.81864,0.66067,-0.027969,-0.078977,-0.56358,-0.20652,0.66069,0.30361,-0.002467,-0.48708,-0.10449,0.76267,0.20159,-0.35953,-0.79312,-0.18101,1.0688,0.35461,-0.48709,-0.84419,-0.41051,0.83924,0.27811,-0.33404,-0.74215,-0.18104,0.66067,0.09954,-0.027969,-0.38505,-0.48708,0.78822,0.099583,-0.002443,-0.48705,-0.41058,0.50763,-0.28308
