-0.35956,0.68621,0.22707,-0.25751,-0.71663,-0.027974,0.86472,0.38013,0.27809,-0.5891,-0.283,0.68618,0.074057,-0.20651,-0.71663,0.048549,0.81372,0.35464,0.099546,-0.48706,-0.28305,0.6352,0.09954,-0.30852,-0.66562,0.048543,0.78821,0.35462,0.099564,-0.51257,-0.28302,0.58417,0.17607,-0.33404,-0.53809,0.023029,0.78822,0.48214,0.2526,-0.35955,-0.30852,0.53313,0.12507,-0.18103,-0.6401,-0.002485,0.81373,0.43115,0.048549,-0.43606,-0.35956,0.48216,0.15057,-0.33404,-0.6146,-0.12999,0.78821,0.40563,0.20159,-0.46156,-0.2065,0.63515,0.12507,-0.20652,-0.69113,-0.1045,0.81371,0.43115,0.15057,-0.48705,-0.23203,0.66069,0.22708,-0.33402,-0.61462,-0.20651,0.91572,0.38014,0.27809,-0.51255,-0.30854,0.50766,0.20157,-0.23202,-0.69114,-0.027974,0.78821,0.45664,0.15059,-0.5891,-0.181,0.48216,0.3291,-0.30852,-0.66563,-0.1555,0.94125,0.43114,0.22711,-0.46158,-0.35953,0.55864,0.2271,-0.33405,-0.58909,-0.23203,0.86473,0.3036,0.17608,-0.43606,-0.25753,0.43113,0.32912,-0.35955,-0.51258,-0.15551,0.78822,0.40563,0.12507,-0.33404,-0.35953,0.50765,0.20159,-0.28302,-0.5636,-0.13,0.71169,0.50766,0.074062,-0.51257,-0.41054,0.40561,0.25259,-0.15551,-0.6146,-0.0535,0.81371,0.50765,0.099559,-0.38505,-0.28302,0.43113,0.2526,-0.30854,-0.48708,-0.20652,0.78821,0.35461,0.17607,-0.41057,-0.28303,0.32911,0.35461,-0.23202,-0.58909,-0.053476,0.71169,0.35464,0.20158,-0.48706,-0.20651,0.3291,0.15059,-0.23202,-0.53809,-0.13,0.71168,0.38014,0.22707,-0.43607,-0.2065,0.3036,0.27811,-0.23204,-0.35954,-0.1555,0.55866,0.32912,0.099546,-0.28302,-0.43607,0.40563,0.2781,-0.30854,-0.5891,-0.13,0.68619,0.43116,0.09954,-0.35954,-0.41055,0.35459,0.27812,-0.20653,-0.41057,-0.15551,0.68617,0.53318,0.3036,-0.35954,-0.33403,0.17607,0.22708,-0.20652,-0.53809,-0.28303,0.60967,0.48214,0.17609,-0.28302,-0.33405,0.30363,0.38013,-0.20652,-0.35953,-0.23204,0.45664,0.50766,0.15056,-0.30851,-0.35954,0.17607,0.25262,-0.25754,-0.41056,-0.23204,0.43114,0.35461,0.25262,-0.15548,-0.48708,0.17606,0.17611,-0.1555,-0.12998,-0.28305,0.48214,0.38013,0.17606,-0.232,-0.38504,0.17607,0.27812,-0.41057,-0.61461,-0.25754,0.58416,0.50766,0.22707,-0.23199,-0.38504,0.17607,0.30361,-0.25753,-0.35955,-0.18102,0.35462,0.60967,0.12509,-0.25751,-0.30855,0.099577,0.25259,-0.10449,-0.38506,-0.13002,0.35464,0.58416,0.15057,-0.25751,-0.35956,0.12509,0.30361,-0.23202,-0.35956,-0.20653,0.32911,0.48214,0.2526,-0.053451,-0.30853,0.17609,0.30359,-0.33405,-0.46159,-0.43608,0.43115,0.63518,0.27811,-0.078966,-0.43607,0.074057,0.38012,-0.28302,-0.41055,-0.48708,0.3546,0.58417,0.12507,-0.23203,-0.35953,0.048561,0.3036,-0.25751,-0.28305,-0.30856,0.35462,0.58418,0.35461,-0.2575,-0.51257,0.023029,0.30361,-0.13,-0.38507,-0.35954,0.43112,0.38012,0.074057,-0.15549,-0.46157,-0.027956,0.25259,-0.1555,-0.28302,-0.25754,0.30361,0.66067,0.074051,-0.35954,-0.61462,-0.002461,0.53315,-0.10448,-0.15549,-0.43607,0.099564,0.66067,0.048536,-0.05347,-0.53809,-0.2065,0.30358,-0.12998,-0.12998,-0.18102,0.17607,0.6607,0.20158,-0.20649,-0.51259,-0.56361,0.60969,0.048561,-0.18098,-0.35955,0.15055,0.43113,0.15057,-0.20652,-0.23202,0.048573,0.17606,-0.41059,-0.28301,-0.13,0.099559,0.68618,0.099588,-0.002454,-0.12998,-0.33401,0.30356,-0.23202,-0.33406,-0.48708,0.15055,0.40566,0.099559,0.099528,-0.35956,-0.10449,0.53318,0.048543,-0.28301,-0.30856,0.099577,0.66067,0.1761,-0.181,-0.74212,-0.33405,0.30362,-0.181,-0.13001,-0.20652,0.099534,0.60968,0.17607,-0.078972,-0.6911,-0.18105,0.43113,-0.002467,-0.41054,-0.28302,0.15056,0.76269,0.02309,-0.10447,-0.38508,-0.053451,0.48214,-0.13001,-0.41057,-0.43609,-0.027969,0.50762,0.32911,-0.10447,-0.6146,-0.38505,0.60967,-0.1555,-0.002436,-0.18099,0.27811,0.45661,-0.02798,0.048536,-0.48705,-0.181,0.45662,-0.12999,-0.43608,-0.6146,0.048531,0.66069,0.27808,-0.002448,-0.20652,-0.61454,0.2526,-0.12999,-0.43606,-0.25754,0.58412,0.53317,-0.027913,-0.12998,-0.66564,-0.25753,0.50765,0.023017,-0.18101,-0.30854,-0.15553,0.73721,0.15056,-0.053451,-0.48707,-0.46156,0.43113,-0.18101,-0.35954,-0.58912,-0.053451,0.71168,0.35463,-0.078984,-0.69112,-0.30854,0.68618,-0.053451,-0.13001,-0.41055,-0.079008,0.6607,0.12506,-0.35957,-0.64008,-0.28304,0.76273,0.20157,-0.18102,-0.56358,0.074051,0.91576,0.2781,-0.43609,-0.69116,-0.38506,0.55868,0.27812,-0.23202,-0.41053,-0.053495,0.55867,0.38014,0.17607,-0.38507,-0.6656,0.58417,-0.027987,-0.23204,-0.5381,-0.51261,0.58414,0.048573,0.27815,-0.38505,-0.18099,0.66067,0.099588,-0.30854,-0.51263,-0.43601,0.73719,0.048543,-0.002467,-0.58908,-0.15549,0.50764,-0.20653,-0.38508,-0.81866,-0.20653,0.89024,0.63521,0.48219,-0.43604,-0.64015,0.3291,-0.15553,-0.69115,-0.51258,-0.10449,1.2984,0.27809,0.074081,-0.69115,-0.74212,0.55866,-0.002467,-0.15551,-0.51259,-0.05347,0.78819,-0.078966,0.2781,-0.64007,-0.35952,1.0942,-0.12999,-0.30854,-0.69114,-0.078977,0.71168,0.15059,0.099546,-0.69108,-0.69116,0.6607,0.12504,-0.18098,-0.5126,-0.12998,0.91571,0.12508,0.09957,-0.69111,-0.66561,0.7627,0.048525,-0.28303,-0.61463,-0.12998,0.96676,0.22708,-0.15548,-0.66561,-0.6146,0.86473,-0.079002,0.17608,-0.64013,-0.43608,0.66067,0.38016,-0.10449,-0.6656,-0.23202,0.55867,-0.15551,-0.28302,-0.61462,-0.10449,0.94127,0.32913,0.099552,-0.71663,-0.51258,0.68617,0.09957,-0.23203,-0.92067,-0.30855,0.86475,0.27811,0.074033,-0.64011,-0.28309,0.38019,0.12504,-0.12999,-0.71658,-0.079021,0.89025,0.27808,-0.053482,-0.71663,-0.46157,0.60966,-0.10448,0.023059,-0.71666,-0.25753,0.73716,0.30362,0.17608,-0.48704,-0.33403,0.66068,-0.1045,-0.33404,-0.71663,-0.33407,0.68617,0.32913,0.50769,-0.35953,-0.64011,0.22705,0.048536,-0.28303,-0.84417,-0.35958,0.99227,0.27811,0.048567,-0.51257,-0.43605,0.86474,0.023029,-0.30855,-0.66562,-0.12996,0.83922,0.38011,-0.0535,-0.81861,-0.30855,0.6607,0.12507,-0.1045,-0.79313,-0.28304,0.81371,0.3291,0.099564,-0.64011,-0.33405,0.48213,0.12507,-0.25754,-0.48706,-0.20652,0.96677,0.55869,-0.027993,-0.76763,-0.66562,1.0687,-0.2065,-0.23203,-0.79313,-0.002467,1.1198,0.35461,0.023017,-0.76764,-0.38506,0.71172,0.074057,-0.23205,-0.94619,-0.30855,0.94129,0.27809,0.099588,-0.53809,-0.38503,0.63517,-0.053488,-0.053464,-0.74215,-0.12998,0.76269,-0.027974,0.099577,-0.53808,-0.23198,0.78818,-0.20652,-0.41058,-1.0992,-0.15551,1.0943,0.53317,0.1506,-0.5381,-0.20652,0.58415,0.15055,-0.79309,-0.86964,-0.18103,1.2218,0.50763,-0.002472,-0.69113,-0.23202,0.96676,0.43116,-0.43605,-0.79312,-0.13002,0.94126,-0.15553,-0.002479,-0.6146,-0.25749,0.63517,-0.20651,-0.15551,-0.6146,0.17607,1.1963,0.40561,-0.053495,-0.79314,-0.5891,0.71168,0.22712,-0.10448,-0.89516,-0.10449,1.0433,0.38012,-0.027993,-0.61459,-0.35958,0.68619,-0.027956,-0.15552,-0.79313,-0.13001,1.0178,0.43113,0.30355,-1.1502,-0.48708,0.81371,0.27808,-0.12999,-0.76766,-0.027962,0.86471,0.074044,-0.10447,-0.43604,-0.30855,0.53316,0.27812,-0.28303,-0.86969,-0.33404,1.0943,0.58419,0.20158,-0.86964,-0.41059,0.76269,0.17607,-0.43606,-0.69111,0.048536,0.99224,0.2781,0.25261,-0.66561,-0.38506,0.60969,0.099528,-0.12999,-0.79315,-0.07899,0.96678,0.32913,0.099559,-0.58912,-0.38505,0.78821,-0.10452,-0.6146,-0.69112,0.074087,1.0178,0.40565,0.048555,-0.6911,-0.66564,1.0688,0.55868,-0.002467,-1.2268,-0.41061,0.7372,0.12507,0.20159,-0.61459,-0.2065,0.83923,0.074044,-0.20651,-0.81868,-0.053476,1.0943,0.43115,0.35462,-0.76763,-0.35954,0.63518,0.048555,-0.10452,-1.2522,-0.2065,0.99224,0.40564,0.17605,-0.58908,-0.48706,0.7372,0.15057,-0.078977,-0.69113,-0.13,0.99226,0.32913,0.27811,-0.99719,-0.48709,0.68621,0.17607,-0.30852,-0.9462,0.17609,1.1708,0.38013,-0.078966,-0.69111,-0.18101,0.73717,0.074062,-0.28302,-0.66561,-0.30856,1.0943,0.50766,0.35465,-0.5891,-0.28301,0.50763,0.22706,-0.30856,-0.89515,-0.25752,0.94127,0.68616,-0.002461,-0.74207,-0.43605,0.99224,0.12505,-0.30851,-0.74216,0.023023,0.89023,0.45666,0.12505,-0.61458,-0.10455,0.27819,0.30361,-0.283,-0.89521,-0.23203,1.0177,0.099546,0.35462,-0.334,-0.23202,0.60968,0.099528,-0.25753,-0.6146,-0.12999,0.83922,0.48211,0.048567,-0.5891,-0.2575,0.86472,0.30363,-0.38509,-1.0227,-0.1045,1.0178,0.66067,-0.002472,-0.64011,-0.23199,0.83921,0.023096,-0.48708,-0.81864,0.073989,0.83922,0.53315,0.30361,-0.53807,-0.25751,0.43114,0.50762,-0.33405,-0.64007,-0.20649,0.99223,0.35459,0.12506,-0.5891,-0.28303,0.55865,0.27812,-0.30856,-0.74213,0.099552,1.0178,0.3291,0.25262,-0.5891,-0.46158,0.27807,0.17606,-0.35954,-0.23201,0.074075,0.76268,0.27811,0.12504,-0.46157,-0.10447,0.63517,0.099552,-0.2065,-0.64014,-0.002472,0.86474,0.40564,0.023035,-0.56358,-0.053488,0.53318,0.38011,-0.15547,-0.58914,-0.46157,0.8137,0.30361,0.20159,-0.53807,-0.12997,0.55866,0.099564,-0.5126,-0.64011,0.048536,0.91577,0.58417,-0.027969,-0.25753,-0.5636,0.022998,0.074038,0.074081,-0.23201,0.099577,0.81372,0.074044,-0.02798,-0.46155,-0.002443,0.45666,0.17606,-0.41056,-0.56361,-0.28302,0.66065,0.38011,-0.078984,-0.33399,-0.002461,0.60968,0.63512,-0.51255,-0.53809,0.023035,0.78819,0.45664,0.40563,-0.41054,-0.30851,0.40564,0.15057,-0.4871,-0.74212,-0.15552,0.6607,0.4311,0.20158,-0.053458,-0.35957,-0.027956,0.22707,-0.053464,-0.30853,-0.053488,0.94126,0.58417,0.2526,-0.53807,-0.53809,0.22709,0.20156,-0.20653,-0.64011,-0.35956,0.55868,0.60971,0.25257,-0.43605,-0.2065,0.45664,0.43112,-0.25753,-0.6146,-0.28303,0.68617,0.50764,0.22707,-0.35954,-0.38503,0.35462,0.35465,-0.027987,-0.69112,-0.25754,0.9157,0.17614,-0.053488,-0.2065,-0.33404,0.55869,0.53312,-0.23202,-0.69113,-0.28304,0.55867,0.30361,0.32917,-0.46158,-0.41057,0.22708,0.32911,-0.2065,-0.46161,-0.12998,0.73722,0.58416,0.17605,-0.1045,-0.51259,0.25259,0.40565,-0.23201,-0.43605,-0.35957,0.60968,0.63518,0.2016,-0.35956,-0.56358,0.074057,0.22708,-0.053482,-0.58908,-0.12998,0.60964,0.53315,0.38011,-0.38504,-0.69107,0.17609,0.20159,-0.053495,-0.25752,0.022998,0.45664,0.25259,0.074051,-0.28302,-0.41055,0.32912,0.45664,-0.38505,-0.20652,-0.38505,0.48213,0.40563,0.25262,-0.46157,-0.30854,0.17609,0.30358,-0.078966,-0.25753,-0.12999,0.45664,0.38012,0.099552,-0.181,-0.35953,0.15057,0.48216,-0.25752,-0.6656,-0.56362,0.63515,0.81368,0.17611,-0.48704,-0.30854,0.04858,0.32917,-0.027993,-0.33404,-0.28306,0.023005,0.35456,-0.002485,-0.053446,-0.30852,0.66073,0.63521,-0.10447,-0.86968,-0.69113,0.17605,0.38013,0.22708,0.074093,-0.002461,0.099583,0.30359,-0.18101,-0.4616,-0.38508,0.074013,0.35462,0.12507,0.023054,-0.30853,0.38012,0.48214,-0.35948,-0.41056,-0.30856,0.5586,0.58417,0.048561,0.25255,-1.1756,-0.15547,0.15054,-0.18101,-0.28304,-0.053495,0.32908,0.60969,0.3036,-0.25751,-0.56361,-0.18103,0.27809,0.048573,-0.33404,-0.33407,0.38015,0.50768,0.48216,0.074044,-0.41056,-0.41059,0.25259,-0.078984,-0.25754,-0.41056,0.099564,0.48214,0.22708,0.15059,-0.33406,-0.10449,0.38009,-0.18098,-0.13,-0.28302,0.074057,0.35461,0.023035,-0.283,-0.43606,0.22708,0.60963,-0.15549,-0.58909,-0.58908,0.022998,0.86474,0.66069,-0.12999,-0.35957,-0.078959,0.35461,-0.28303,-0.30856,-0.25751,0.12505,0.32912,-0.079002,0.2271,-0.5126,-0.23201,0.50765,-0.02798,-0.28302,-0.25754,0.023065,0.43116,0.17609,-0.079002,-0.61458,-0.13001,0.60967,-0.12999,-0.48708,-0.46157,-0.027974,0.53313,0.17607,0.099577,-0.30851,0.023041,0.48212,0.17599,-0.41051,-0.30854,-0.15552,0.30355,-0.053458,0.15057,-0.02792,0.099564,0.55868,-0.28305,-0.35956,-0.33404,0.2526,0.22707,-0.10452,-0.2065,-0.30854,0.074069,0.2781,-0.20649,-0.33404,-0.079026,0.048518,0.63517,0.2526,-0.027956,-0.48708,-0.33401,0.58415,-0.002448,-0.5381,-0.30855,-0.078996,0.60967,0.30361,-0.23202,-0.74213,-0.46157,0.60968,-0.078977,-0.12999,-0.18102,0.35459,0.27818,0.099577,-0.10452,-0.5381,-0.20651,0.43112,-0.25754,-0.30854,-0.51258,-0.053488,0.58417,0.43114,0.22713,-0.81866,-0.35956,0.40564,-0.053488,-0.43607,-0.43608,0.20155,0.89024,0.20161,-0.002418,-0.38506,-0.25751,0.48214,-0.079014,-0.48709,-0.61464,-0.002443,0.58417,0.048573,0.38006,-0.7166,-0.30847,0.53314,-0.10449,-0.20652,-0.38507,-0.10449,0.91573,0.17607,-0.20651,-0.61462,-0.35954,0.55866,0.22708,-0.46159,-0.6146,-0.18101,0.7627,0.27815,0.25263,-0.74215,-0.30854,0.40561,-0.15549,-0.35956,-0.28305,-0.48703,0.7372,0.20161,-0.002454,-0.61461,-0.38505,0.7372,0.023017,-0.25753,-1.1246,-0.15549,0.89019,0.45661,-0.12993,-0.51257,-0.28305,0.60967,-0.13003,-0.35953,-0.43607,-0.30855,0.53317,0.048536,0.48221,-0.46157,-0.43607,0.30359,-0.027987,-0.30855,-0.79317,-0.30854,0.89024,0.68625,-0.15545,-0.6911,-0.30851,0.71166,-0.002467,-0.25753,-0.51259,-0.25753,0.60967,-0.027969,0.023072,-0.30858,-0.9971,0.40563,0.3036,0.023035,-0.66564,-0.18101,0.86474,0.35463,-0.053458,-0.4871,-0.2065,0.76269,-0.079002,-1.0226,-0.64013,-0.25756,0.73719,0.38013,0.074057,-0.38505,-0.35956,0.81373,-0.13002,-0.30853,-0.71662,-0.23203,0.78822,0.50765,0.074087,-0.97168,-0.30854,0.68617,-0.078972,-0.30854,-0.71666,-0.18098,1.0688,0.45664,0.3036,-0.76764,-0.74211,0.30362,0.048555,-0.13001,-0.56364,-0.053488,0.7117,0.25261,0.023078,-0.79314,-0.43604,0.91573,-0.002461,-0.64012,-1.0227,0.32908,0.86474,0.38014,-0.027974,-0.64009,-0.71664,0.83925,0.3036,-0.41057,-1.0482,-0.15551,0.91577,0.40566,-0.10449,-0.76764,-0.38506,0.58418,0.35462,-0.078972,-0.79315,-0.13,0.83923,0.099528,-0.20649,-0.64011,-0.30852,0.7372,0.09954,-0.30854,-0.97164,-0.078972,1.3493,0.27808,-0.13,-0.38512,-0.92059,0.76273,0.17605,0.023029,-0.86967,-0.35953,0.63517,0.53312,0.099559,-0.6401,-0.48706,0.63518,0.30361,-0.35955,-0.74214,-0.25755,0.91577,0.40564,0.023072,-0.79315,-0.64011,0.71169,-0.002485,-0.15549,-0.69115,-0.13,0.89023,0.30363,0.12505,-0.74211,-0.38506,0.68624,0.20155,-0.41055,-0.74214,0.20155,0.83924,0.20157,-0.12998,-0.71666,-0.79306,0.81371,0.2271,-0.25755,-0.53812,-0.13,1.1963,0.45665,0.12505,-0.79313,-1.2267,0.68621,0.45658,-0.41055,-0.71663,-0.181,1.0433,-0.002461,0.12506,-0.46153,-0.30854,0.55867,-0.079002,-0.38505,-0.74215,0.2271,1.1963,0.30359,-0.078996,-0.9717,-0.69111,0.32911,0.22706,-0.15548,-0.61461,-0.078966,0.78818,0.40564,0.40562,-0.43608,-0.46153,0.81368,-0.18093,-0.53809,-1.0482,-0.181,0.89022,0.40563,0.099559,-0.48702,-0.12998,0.55863,-0.002491,-0.33409,-0.71659,-0.15551,0.99224,0.53318,-0.10447,-0.7676,-0.25753,0.66067,0.20156,0.023017,-1.0992,-0.41057,0.86475,0.40559,-0.027987,-0.6146,-0.181,0.76273,0.20158,-0.41057,-0.71664,-0.25754,1.0688,0.38012,-0.15545,-0.84414,-0.28308,0.8903,0.3036,-0.43609,-1.0227,-0.46161,1.0943,0.55866,0.20159,-0.53804,-0.48706,0.50766,0.099552,-0.028005,-0.74212,-0.33401,0.86471,0.27811,0.15056,-0.51259,-0.30852,0.66065,0.074062,-0.53807,-0.76764,-0.10449,1.2983,0.3546,0.15057,-0.8186,-0.053464,0.76269,0.27809,-0.46158,-0.86968,-0.23205,0.73718,0.81373,-0.002454,-0.92065,-0.66561,0.89026,0.30359,-0.23202,-0.71661,-0.002485,1.2728,0.099577,-0.002485,-0.5891,-0.35956,0.71168,-0.078996,-0.30855,-0.58913,-0.30852,1.0432,0.38014,0.15057,-0.51255,-0.15546,0.55866,0.35461,-0.38504,-0.84417,-0.002503,0.71175,0.22711,0.074087,-0.64011,-0.46159,0.78819,0.25256,-0.1555,-0.92064,-0.15549,1.2473,0.30361,-0.1045,-0.66557,-0.35953,0.8137,0.15057,-0.20655,-0.74214,-0.15551,0.94125,0.48216,-0.05347,-0.61458,-0.23202,0.83925,0.20156,-0.23202,-0.89518,-0.20652,0.86472,0.55867,0.22711,-0.43609,-0.35952,0.68619,0.12504,-0.41058,-0.81866,-0.15551,0.94125,0.27811,0.32913,-0.76765,-0.41057,0.83923,0.60971,-0.15549,-0.94619,-0.58916,0.66067,0.60969,0.43117,-0.48707,-0.41054,0.50763,0.35464,-0.25751,-0.66564,-0.33407,0.76273,0.55867,0.074033,-0.76761,-0.35953,0.53318,0.27809,-0.43609,-0.69113,0.17609,0.76268,0.15059,0.17607,-0.51257,-0.283,0.8647,0.023078,-0.30854,-0.66562,-0.053464,1.1198,-0.12991,0.074051,-0.69113,-0.13005,0.86471,-0.002394,-0.15551,-0.69114,-0.12998,0.86474,0.78818,0.22711,-0.69113,-0.69113,0.50763,0.38014,0.048549,-0.64009,0.12507,0.83922,0.38012,-0.078984,-0.69111,-0.46156,0.66068,0.20158,-0.078972,-0.69113,-0.18101,0.81371,0.55864,0.38011,-0.5126,-0.56358,0.68618,-0.1554,-0.30855,-0.23209,-0.20651,1.1198,0.63518,0.2016,-0.46157,-0.53808,0.55864,0.15054,-0.30852,-0.86963,-0.053464,0.94124,0.3291,0.15054,-0.58912,-0.25751,0.60968,0.38014,-0.23201,-0.56359,-0.25756,0.81372,0.35464,0.25259,-0.12998,-0.23202,0.27808,-0.028018,-0.20652,-0.6146,-0.002472,0.89027,0.5587,0.20158,-0.41057,-0.58909,0.30359,0.15057,-0.10447,-0.28305,-0.002485,0.94123,0.2271,0.023096,-0.46157,-0.35957,0.6352,0.25259,-0.38503,-0.53808,-0.053506,0.86471,0.60967,0.099546,-0.20652,-0.18097,0.17609,0.17609,-0.15552,-0.35954,-0.18102,0.43112,0.30358,0.099588,-0.30852,-0.027925,0.7117,0.17607,-0.4361,-0.76765,-0.30857,0.7372,0.45665,0.25259,-0.51256,-0.05347,0.55867,0.22707,-0.5891,-0.66564,-0.15553,0.58417,0.35463,0.38012,-0.25754,-0.20648,0.38011,0.074062,-0.23201,-0.43609,-0.20655,0.45668,0.55865,-0.078941,-0.20652,-0.1045,0.6097,0.53315,-0.4361,-1.1247,-0.20655,0.38011,0.78825,0.2526,-0.3595,-0.28302,0.45666,0.48214,-0.18101,-0.76766,-0.002467,0.83922,0.40562,-0.027993,-0.46156,-0.30853,0.43112,0.22711,-0.38505,-0.51259,-0.13,0.73721,0.66067,0.17609,-0.66554,-0.43603,0.50763,0.2271,-0.028042,-0.35954,-0.38508,0.45664,0.40563,0.38009,-0.538,-0.58908,0.3036,0.32908,0.022998,-0.25751,-0.027993,0.6862,0.40562,0.40566,-0.23199,-0.33402,0.2271,0.30359,-0.1045,-0.69113,-0.46156,0.68615,0.25259,0.12506,-0.15551,-0.38503,0.12509,0.22709,-0.027974,-0.43607,-0.12998,0.66067,0.6862,-0.002448,-0.53807,-0.002503,0.27811,0.45663,-0.46157,-0.58913,-0.38506,0.55868,0.60969,0.25262,-0.38503,-0.28308,-0.33399,0.2271,0.22709,-0.078953,-0.25754,0.58417,0.45663,-0.18105,-0.35956,-0.181,0.074062,0.30363,-0.1045,-0.56359,-0.35959,0.55866,0.43116,0.15059,-0.12998,-0.10451,-0.10443,0.53317,0.17604,-0.84414,-0.28306,0.12509,0.71167,0.20156,-0.053476,-0.41052,0.2016,0.38011,-0.46158,-0.61463,-0.30856,0.43115,0.66068,0.04858,-0.23201,-0.41057,0.15058,0.3291,-0.053446,-0.41057,-0.10449,0.53317,0.45663,0.32913,-0.35957,-0.51258,-0.10449,0.15055,-0.28303,-0.15552,-0.05347,0.30358,0.17612,0.074057,-0.053488,-0.51257,0.023065,0.96674,0.25262,-0.48712,-0.74217,0.074044,0.53315,0.45667,-0.23199,-0.38504,0.023035,0.50766,-0.18097,-0.58912,-0.43607,0.20155,0.55866,0.20159,-0.30855,-0.33401,0.12505,0.60969,-0.181,-0.38508,-0.30854,0.27806,0.2016,0.38014,0.023035,-0.25754,-0.436,0.22704,-0.078972,0.023059,-0.1045,0.40561,0.32906,-0.30847,-0.10449,-0.41058,-0.002454,0.40561,-0.02792,-0.10452,-0.23202,0.22708,0.45664,-0.053476,-0.13,-0.35954,-0.078996,0.38014,-0.027944,-0.12998,-0.30855,0.15057,0.43111,-0.027962,-0.18102,-0.41054,-0.053495,0.60966,-0.23202,-0.46152,-0.13005,-0.053439,0.53316,0.32908,-0.002454,-0.46156,-0.28302,0.32909,0.3291,-0.33402,-0.64008,-0.00251,0.53315,0.074051,0.17611,-0.33403,-0.2065,0.20156,-0.15548,-0.25753,-0.35953,0.048549,0.53315,0.15057,0.074057,-0.43604,-0.58913,0.38011,0.023041,-0.15548,-0.33404,0.048506,0.50767,0.048536,0.048543,-0.33402,0.17609,0.45664,-0.41055,-0.43606,-0.46158,-0.07899,0.78821,0.27811,-0.078959,-0.38508,-0.10449,0.22706,-0.2575,-0.15549,-0.28298,0.074051,0.45662,0.22708,-0.002472,-0.58908,-0.25755,0.43115,-0.05347,-0.181,-0.5381,0.048543,0.71171,0.55866,-0.12998,-0.66563,-0.53807,0.35464,-0.027993,-0.1555,-0.51258,-0.18101,0.5587,0.20159,0.12505,-0.66559,-0.002461,0.76268,-0.20647,-0.33404,-0.46159,0.12506,0.7117,0.15056,-0.053451,-0.66563,-0.6146,0.3291,0.099564,-0.30855,-0.181,-0.002467,0.81376,0.30361,-0.12999,-0.79317,-0.20648,0.43113,0.25263,-0.20653,-0.66562,-0.46162,0.45664,0.15054,-0.18099,-0.41057,-0.23201,0.63519,0.17608,-0.181,-0.41054,-0.07899,0.71168,0.17607,-0.23198,-0.41058,-0.30852,0.53315,0.38016,-0.30852,-0.8187,-0.18108,0.55867,0.023065,-0.027944,-0.25753,-0.28302,0.55867,-0.027974,-0.30854,-0.33405,-0.002454,0.55867,0.35458,-0.10448,-0.6401,-0.58908,0.71171,-0.053495,-0.053458,-0.48708,-0.30855,0.4056,0.12505,0.15059,-0.30851,-0.12998,0.45662,-0.4871,-0.25754,-0.43603,0.023035,0.63518,0.25261,-0.078966,-0.64009,-0.41057,0.48214,-0.078984,-0.35953,-0.64013,-0.20653,0.83924,0.17609,0.074057,-0.33405,-0.25751,0.63517,-0.002461,-0.64009,-0.58908,-0.002485,0.76269,0.22704,-0.10446,-0.30856,-0.48704,0.71168,-0.20647,-0.13003,-0.23202,-0.10453,0.83925,-0.079014,-0.078959,-0.28303,-0.3085,0.35459,-0.43609,-0.2065,-0.12997,0.22711,0.63517,0.074044,-0.053488,-0.84417,-0.30853,0.63517,0.25262,-0.10449,-0.58913,-0.28302,0.7627,0.15055,0.099552,-0.46155,-0.33402,0.38011,0.09954,-0.23201,-0.53809,-0.2065,0.53317,0.53312,0.40563,-0.58908,-0.51257,0.40564,0.048549,-0.28304,-0.53808,-0.20653,0.58416,0.38012,0.2526,-0.56358,-0.35954,0.81371,-0.10449,-0.51262,-1.0737,-0.15551,1.0178,0.50768,0.023054,-0.69111,-0.43608,0.76271,-0.002472,-0.33407,-0.76766,-0.20653,0.91575,0.43116,0.27811,-0.6656,-0.43608,0.40563,-0.002461,-0.28303,-0.5381,-0.23204,0.76272,0.32912,0.07402,-0.56356,-0.41054,1.1452,-0.48704,-0.51255,-0.61462,-0.18099,1.1963,0.27811,0.17604,-0.79314,-0.69106,0.73717,0.22709,-0.15551,-0.48707,-0.35956,0.7627,0.38016,-0.053495,-0.61459,-0.33404,0.91576,0.17609,-0.38508,-0.58911,-0.23203,0.71168,0.099559,0.25261,-0.48705,-0.56359,0.53313,0.023041,-0.25749,-0.81866,-0.18101,0.91575,0.40561,-0.027956,-0.94615,-0.38506,0.71168,0.3291,0.023059,-0.56359,-0.38505,0.8392,-0.027974,-0.25751,-0.51257,-0.53809,0.71172,0.15057,-0.053476,-0.76763,-0.28302,1.0688,-0.028011,-0.027987,-0.69115,-0.48717,0.60973,0.27812,0.074087,-0.79319,-0.30854,0.81371,0.2526,-0.002461,-0.81866,-0.46156,0.73721,-0.15549,-0.35956,-0.79315,0.074057,1.1963,0.45662,-0.078947,-0.79314,-0.6911,1.1452,0.17607,-0.41055,-0.89512,-0.41056,0.89024,0.50763,0.22709,-0.51256,-0.46159,0.63517,0.22708,-0.51256,-0.79318,-0.38508,0.89025,0.5842,0.32914,-0.5126,-0.69111,0.55865,0.20161,0.02301,-0.94621,-0.33407,0.81371,0.53317,0.12507,-0.48704,-0.25754,0.6862,-0.13001,-0.28302,-0.6146,-0.2065,0.81368,-0.078947,0.25259,-0.5891,-0.35952,1.0432,0.12509,-0.5381,-0.5636,0.35456,0.66072,-0.002448,-0.1045,-0.30855,-0.15545,0.76271,0.12509,-0.12999,-0.5891,-0.25754,0.66064,0.22705,-0.10447,-0.74211,-0.5636,0.76273,0.7372,-0.38503,-0.92066,-0.13,1.1963,0.55869,0.12505,-0.89516,-0.51259,0.71168,-0.053476,-0.25754,-0.64015,-0.053476,0.89027,0.27813,-0.02792,-0.6401,-0.30856,0.86472,0.45658,-0.35955,-0.53806,0.07402,0.66067,0.12505,0.074075,-0.56358,-0.51259,0.63522,0.20158,-0.25754,-1.0227,-0.13002,1.3494,0.55866,-0.15551,-0.58909,-0.10449,0.48214,0.22708,-0.181,-0.38503,-0.1045,0.89024,0.02301,-0.20654,-0.69113,-0.10449,0.50767,0.074062,-0.15552,-0.71663,-0.13002,0.83927,0.43114,0.1251,-0.28306,-0.33409,0.53317,-0.002461,-0.28302,-0.66565,-0.20652,0.68621,0.27812,0.38014,-0.43607,-0.002491,0.50762,-0.027993,-0.35953,-0.81866,-0.078959,1.0433,0.45664,0.27812,-0.66563,-0.38504,0.50766,0.3036,-0.2065,-0.71665,-0.18102,1.0433,0.30358,0.048536,-0.46154,-0.35956,0.7882,-0.10447,-0.38505,-0.79318,-0.079021,0.99228,0.66072,0.20159,-0.5891,-0.33403,0.68617,0.048561,-0.1555,-0.69113,-0.30854,0.73718,0.53317,0.27813,-0.5891,0.048482,0.68622,-0.20647,-0.25753,-0.66565,-0.20651,0.7627,0.22709,0.73716,-0.46154,-0.181,0.45659,-0.078953,-0.23201,-0.30855,-0.30854,0.86472,0.27808,-0.1555,-0.61458,-0.20651,0.78821,0.2271,-0.25753,-0.69113,-0.1555,0.8137,0.30361,0.074062,-0.58909,-0.30853,0.78822,0.38013,-0.35953,-0.64014,-0.18106,0.83925,0.30361,0.023041,-0.51256,-0.13001,0.66067,0.15057,-0.41056,-0.7421,0.27803,0.60968,0.55868,0.53314,-0.58907,-0.74212,-0.027962,0.15054,0.022998,-0.30853,0.15058,0.91572,0.15056,-0.10452,-0.6146,0.15062,1.0688,0.35464,-0.53811,-0.97166,-0.28306,0.7627,0.38013,0.22707,-0.43604,-0.28304,0.45664,-0.13001,-0.20652,-0.56358,0.12505,0.81373,0.22708,0.20156,-0.33402,-0.35954,0.45667,0.20156,-0.079002,-0.7421,0.12507,0.91572,0.27808,0.27808,-1.1246,-0.35958,0.48216,0.17602,0.17609,-0.48705,0.048598,0.66068,-0.18107,0.15056,-0.43606,-0.33402,0.68617,0.38016,-0.002436,-0.5891,-0.25756,0.60969,0.53314,0.22711,-0.56359,-0.20652,0.50765,0.22709,-0.25752,-0.71662,-0.30854,0.78818,0.2271,0.22708,-0.053495,-0.23199,0.27817,0.32909,-0.12999,-0.53811,-0.002479,0.63517,0.50768,0.3036,-0.35953,-0.5381,0.45663,0.25256,-0.41055,-0.46155,0.38015,0.63514,-0.181,-0.053495,-0.20649,-0.15549,0.40568,0.40561,-0.079021,-0.58907,-0.15548,0.63516,0.63514,0.074062,-0.5891,-0.30854,0.43113,0.43116,-0.02798,-0.6911,-0.15553,0.76267,0.45664,0.048555,-0.58908,-0.15551,0.55868,0.22712,-0.079026,-0.94613,-0.15549,0.66065,0.53315,0.4056,-0.64011,-0.38507,0.58419,0.43115,-0.053451,-0.48709,0.048555,0.58414,0.30363,0.17606,-0.64011,-0.38506,0.2271,0.3036,-0.053451,-0.30855,-0.33404,0.7372,0.2526,0.17606,-0.30854,-0.15551,0.43114,0.32914,-0.33404,-0.053537,-0.15551,0.25264,0.35461,0.15059,-0.25747,-0.28305,0.60965,0.20155,-0.58907,-0.53807,0.25257,0.86471,0.32911,-0.027974,-0.86966,-0.41058,0.30364,0.71172,-0.053427,-0.28302,-0.41056,0.60962,0.25263,-0.002479,-0.41054,-0.10449,0.5587,0.40562,-0.33404,-0.4361,-0.078977,0.58416,0.45666,0.099534,-0.2575,-0.46157,0.023035,0.27808,-0.23198,-0.33403,-0.13001,0.55864,0.45666,0.17609,-0.1045,-0.20649,0.20163,0.074013,-0.43611,-0.43609,-0.46155,0.6352,0.55864,0.58416,0.02309,-0.053482,-0.28302,0.15056,-0.35957,-0.35953,-0.181,0.45664,0.45666,-0.12998,-0.053495,-0.25751,0.15057,0.2526,-0.078996,-0.20655,-0.38502,0.30358,0.48213,0.2526,-0.078977,-0.283,0.074026,0.1761,-0.25753,-0.33404,-0.002491,0.22708,0.3036,-0.20647,-0.20648,-0.18103,0.20159,0.38014,-0.18098,-0.23202,-0.30856,0.50762,0.48214,0.074051,-0.30852,-0.53809,0.023054,0.45667,-0.12999,-0.46157,-0.23203,0.30357,0.45666,0.55869,-0.28302,-0.46159,-0.027974,0.7117,-0.30854,-0.61457,-0.18102,0.48214,0.55864,0.22706,-0.25751,-0.51259,-0.027962,0.60962,-0.12999,-0.33404,-0.385,0.30362,0.27813,0.15056,-0.25754,-0.12999,0.22706,0.3546,-0.56359,-0.61457,-0.33406,0.45664,0.58417,0.66065,-0.33401,-0.38503,0.17605,0.27812,-0.5126,-0.2065,-0.23204,0.30359,0.40561,0.25264,0.023041,-0.53807,-0.23204,0.2271,-0.23203,-0.15554,-0.43604,0.35459,0.5587,0.22707,-0.12999,-0.18099,-0.002454,0.3036,-0.05347,-0.41055,-0.15551,-0.10445,0.58416,0.43113,-0.078972,-0.35955,-0.25755,0.4566,-0.25753,-0.25752,-0.38508,0.32913
-0.13002,-0.35954,-0.48711,-0.053476,0.7117,0.3291,-0.027944,-0.53807,-0.35954,0.45664,-0.10452,-0.23201,-0.51261,0.023041,0.89024,0.32911,0.15059,-0.5126,-0.46157,0.43112,-0.10452,-0.33403,-0.64013,-0.25751,0.6862,0.32912,0.17611,-0.46155,-0.46156,0.32912,-0.15552,-0.41055,-0.5126,-0.15551,0.94125,0.2781,0.099583,-0.64009,-0.38506,0.53317,-0.053488,-0.18099,-0.4871,-0.12999,0.86472,0.30358,0.048561,-0.86964,-0.64009,0.55865,-0.027998,-0.20652,-0.61461,-0.078984,0.86475,0.35462,0.048555,-0.74211,-0.56361,0.71166,-0.23198,-0.23202,-0.35959,-0.002467,0.91575,0.22712,0.20158,-0.53807,-0.43607,0.63518,-0.078977,-0.38506,-0.86968,-0.28302,0.76271,0.63516,-0.2065,-0.66561,-0.58908,0.68619,0.099546,-0.28305,-0.5636,-0.027993,0.78823,0.48214,-0.078935,-0.56358,-0.48708,0.68617,0.023047,-0.18102,-0.58911,-0.181,0.78822,0.12508,0.074057,-0.6656,-0.53812,0.55866,0.023023,-0.25753,-0.58911,-0.2065,0.86472,0.17612,0.35458,-0.66556,-0.30855,0.73721,0.15054,-0.25753,-0.61462,-0.25751,0.89023,0.30364,0.048561,-0.28305,-0.6146,0.73719,-0.05347,-0.35954,-0.84414,-0.18103,0.73721,0.20159,0.15059,-0.56361,-0.53809,0.63517,0.099564,-0.1045,-0.56359,-0.20653,0.83923,0.074057,-0.02792,-0.56361,-0.43607,0.73718,-0.053482,-0.25753,-0.74216,-0.28303,0.96676,0.35463,0.20159,-0.5891,-0.43604,0.7117,0.074044,-0.28302,-0.66565,-0.23204,0.73721,0.17607,0.15059,-0.71661,-0.48708,0.55867,0.15058,-0.18101,-0.81865,-0.28305,0.81371,0.40563,0.32912,-0.43604,-0.30852,0.66067,0.17609,-0.30854,-0.99723,-0.5636,0.78819,0.30361,0.20159,-0.56358,-0.35953,0.66068,0.12508,-0.38506,-0.79313,-0.078996,0.83923,0.3036,0.12507,-0.66561,-0.30855,0.7627,0.15057,-0.30855,-0.71663,-0.15552,0.86472,0.30363,0.074051,-0.61458,-0.41052,0.7372,-0.05347,-0.41058,-0.79315,-0.053488,0.99224,0.27811,0.17606,-0.61458,-0.33405,0.73723,-0.002472,-0.46156,-0.71663,-0.12999,0.99226,0.2526,0.074051,-0.71663,-0.38505,0.83923,0.38011,-0.20652,-0.61464,-0.35953,0.78824,0.38013,0.78814,-0.38506,-0.86963,0.35465,0.048543,-0.3085,-0.84419,-0.35956,0.91572,0.43114,0.15058,-0.56356,-0.28303,0.78821,0.15057,-0.13002,-0.6146,-0.079002,0.91577,0.35463,0.12509,-0.58911,-0.30852,0.71171,-0.28301,-0.94617,-0.76769,-0.002485,1.3748,0.50766,0.17612,-0.43606,-0.33403,0.78821,0.074044,-0.35954,-0.79318,-0.23202,0.89024,0.074069,-0.053464,-0.58909,-0.2065,0.91573,0.22712,-0.23201,-0.71663,-0.079021,1.6042,0.20161,-0.43598,-0.51259,-0.35954,0.45666,0.074075,-0.28306,-0.58911,0.12505,0.91572,0.30363,0.15056,-0.71662,-0.25751,0.78821,0.12508,-0.078972,-0.64013,-0.38508,0.86474,0.4566,-0.078984,-0.69109,-0.12997,0.81373,0.66064,-0.18097,-0.71663,-0.15553,0.71166,0.20155,0.58421,-0.232,-0.38505,0.15055,-0.028018,-0.53808,-0.76767,-0.002467,1.1453,0.38016,0.22706,-0.283,-0.56351,1.0177,0.20157,-0.43605,-0.35962,-0.25753,0.99227,1.0687,-0.63998,-0.74211,-0.4871,0.66067,-0.053519,0.048506,-0.92065,0.023072,1.0432,0.27815,0.22709,-0.64006,-0.43603,0.63517,0.32907,-0.41058,-0.76766,-0.18101,0.78821,0.20157,0.27812,-0.41056,-0.48708,0.68618,0.53318,-0.15545,-0.66561,0.15049,0.6097,0.50764,0.27808,-1.0481,-0.46154,0.55859,0.25257,-0.15555,-0.46158,-0.053525,0.83921,0.43111,0.12508,-0.28303,-0.71657,0.32917,0.35465,-0.283,-0.8952,-0.25756,1.2984,0.94128,0.71166,-0.5126,-0.81862,0.53317,0.074044,-0.51259,-0.89522,-0.35956,0.99226,0.45664,0.12509,-0.38505,-0.30849,0.76275,0.15059,-0.079002,-0.33411,-0.38503,0.68619,0.40562,0.35463,-0.61455,-0.385,0.53314,0.32907,-0.053513,-0.64014,-0.84406,1.4767,0.43112,0.17609,-0.30852,-0.25751,0.40565,0.27811,-0.35956,-0.69113,-0.25753,0.81374,0.55866,0.099595,-0.64013,-0.15548,0.66069,0.023017,-0.25756,-0.64012,0.048543,1.5024,0.27809,-0.4106,-0.79318,-0.30854,0.58417,0.35464,-0.232,-0.15549,0.023047,0.71168,0.45669,0.048536,-0.28305,-0.41056,-0.02795,-0.027956,-0.13004,-0.4616,-0.25751,1.1197,0.15062,0.27811,-0.56356,-0.53805,0.71167,0.50765,-0.30851,-0.61462,0.15052,0.66067,-0.38494,0.30362,-0.13001,-0.002485,0.38013,0.099552,-0.41057,-0.61463,-0.46158,0.68619,0.71176,0.60969,-0.53809,-0.89519,0.32913,0.68622,-0.05347,-0.71662,-0.41059,0.40563,0.25257,0.43114,-0.15549,-0.23199,0.43112,-0.002454,-0.1045,-0.38505,-0.002491,0.40564,0.38012,0.20157,-0.51257,-0.33407,0.023047,0.17607,-0.46151,-0.35952,-0.15549,0.55862,0.63518,0.22711,-0.027956,-0.71654,0.15058,0.3801,-0.15551,-0.30855,-0.38508,0.55862,0.17611,0.074033,-0.51257,-0.23202,0.53314,0.2016,0.099583,-0.41058,-0.078959,0.55866,0.43115,-0.10452,-0.33402,-0.48708,-0.027987,0.20159,-0.053464,-0.38506,-0.12999,0.9157,0.43115,0.099577,0.023017,-0.33404,-0.74202,0.25259,-0.28305,-0.20653,-0.33406,0.83917,0.89024,0.45666,-0.41059,-0.84412,-0.2575,0.83918,-0.28303,-0.66565,-0.078996,0.55865,0.71173,0.6607,-0.078959,-0.86968,-0.05347,0.38013,-0.053488,-0.56363,-0.48711,0.20158,0.25262,0.32914,-0.10447,-0.30854,-0.10447,0.25257,-0.20651,-0.15548,0.17604,0.40561,0.45664,0.09957,-0.10445,-0.43607,0.25254,-0.002467,-0.69111,-0.71661,-0.053525,0.35464,0.58418,0.099552,-0.078935,-0.38503,-0.283,0.43112,-0.15553,-0.28305,-0.58916,0.17605,0.81371,0.43116,-0.35949,-0.58911,0.048543,0.3291,0.048567,-0.33409,-0.28302,0.40563,0.66068,0.17611,-0.28305,-0.38503,-0.002461,0.43113,-0.41058,-0.76764,-0.53811,0.40555,0.45669,0.89026,-0.053446,-0.56361,-0.58907,0.32908,0.074002,-0.12995,-0.002485,-0.078959,0.45661,-0.053446,-0.436,-0.028018,0.15056,-0.027944,-0.25754,-0.41059,-0.23202,0.30363,0.63518,0.3036,-0.28295,-0.66561,-0.25756,0.12505,0.15056,-0.43609,-0.41057,0.099552,1.0433,0.074062,-0.1045,-0.51259,-0.33404,0.38011,-0.15549,-0.12999,-0.41058,0.2781,0.71171,0.22715,0.074044,-0.58911,-0.18102,0.45667,-0.053537,-0.20653,-0.58907,-0.66558,0.55869,0.53311,0.099515,-0.41053,-0.48703,0.60967,-0.078984,-0.10449,-0.51258,-0.20652,0.76273,0.4311,0.27813,-0.48708,-0.25754,0.32909,-0.43606,-0.4616,-0.5636,0.15056,0.81373,0.55869,-0.15549,-0.66559,-0.078972,0.58419,0.12507,-0.56362,-0.81869,-0.20653,0.76272,0.32911,-0.053476,-0.35954,-0.38505,0.4821,-0.28306,-0.48707,0.15057,0.17607,-0.12992,0.32918,0.76261,-0.51257,-0.027993,0.023096,0.25253,-0.74212,-0.30853,-0.002479,0.53317,0.15054,0.176,-0.64008,-0.30851,1.2473,-0.41057,-0.76766,-0.74215,-0.002454,0.81373,0.32915,0.45669,-0.46156,-0.33404,0.55864,-0.12999,-0.71666,-0.69113,0.023023,0.78822,0.099595,0.30363,-0.51257,-0.53812,0.32909,-0.18099,-0.23203,-0.33405,0.099521,0.73723,0.22711,-0.027969,-0.53806,-0.33405,0.45668,0.43108,-0.30855,-0.30858,-0.58899,0.60968,-0.10445,0.15052,-0.48708,-0.20653,0.55863,-0.002461,-0.0535,-0.43607,-0.41057,0.58417,0.32913,0.074062,-0.58909,-0.56359,0.63519,-0.027987,-0.002467,-0.38502,-0.13,0.99225,0.48216,-0.002467,-0.61461,-0.58911,0.40561,-0.28305,0.12504,-0.76762,-0.25754,0.68617,0.32908,0.27812,-0.74211,-0.18098,0.68617,0.023059,-0.43608,-0.69113,-0.12999,0.7627,0.17607,0.09957,-0.35957,-0.48707,0.40566,0.2526,-0.28301,-0.51257,-0.18101,0.71169,0.15055,-0.002461,-0.66566,-0.53808,0.38011,0.43117,0.20161,-0.38509,-0.2065,0.83921,0.099546,-0.35954,-0.38505,-0.25749,0.40561,-0.002479,-0.25754,-0.66562,-0.13,0.86472,0.40563,-0.002448,-0.53805,-0.10452,0.60969,0.12505,-0.13002,-0.58911,-0.28302,0.89021,0.17604,-0.30847,-0.64011,-0.20649,0.63514,0.048543,-0.13,-0.51255,0.074062,0.6607,0.048494,-0.078972,-0.86967,-0.53809,0.43113,0.048598,-0.1045,-0.3085,-0.078984,1.1453,0.32908,0.30363,-0.81863,-0.51261,0.63515,0.20155,-0.7931,-0.99721,-0.41056,0.81371,0.40565,0.22709,-0.61456,-0.33398,0.81371,0.40559,-0.6146,-0.6146,-0.10449,0.76272,0.12506,0.074038,-0.64009,-0.43609,0.60967,-0.002467,-0.46156,-0.41057,-0.18102,1.0943,0.32911,0.023054,-0.84412,-0.46154,0.63516,0.023005,-0.53809,-0.46151,-0.027969,1.5023,-0.18095,-0.13001,-0.61462,-0.41056,0.99226,0.0741,-0.23202,-0.71664,-0.35958,0.66069,0.48214,0.12511,-0.7676,-0.28304,0.73718,0.2015,-0.66556,-0.5636,-0.12999,1.1453,0.45666,-0.002461,-0.81865,-0.35956,0.66065,0.20156,-0.23201,-0.58911,-0.181,0.89027,0.2271,0.20162,-0.66563,-0.38506,0.53312,-0.078977,-0.33401,-0.51259,-0.38506,1.0688,0.48216,0.12512,-0.92068,-0.76766,0.63516,0.40565,-0.10448,-0.76763,-0.23204,0.83923,0.27808,0.22713,-0.53808,-0.41054,0.66069,0.25259,-0.43609,-0.97171,-0.15553,1.3238,0.2016,0.074075,-0.76764,-0.28302,0.81373,0.2781,-0.18102,-0.97169,-0.028023,0.60972,0.32912,0.27809,-0.25752,-0.30858,0.55867,-0.027969,-0.10452,-0.6911,-0.18103,0.83922,0.35463,0.40563,-0.15547,-0.58908,0.074057,-0.33407,-0.079008,-0.69111,-0.079008,1.0178,0.38011,0.25262,-0.35948,-0.46157,0.83919,0.048543,-0.43606,-0.81864,0.048555,1.1453,0.22708,0.074051,-0.74211,-0.38508,0.7372,0.20155,-0.41054,-0.89518,-0.1555,0.81372,0.50766,0.17608,-0.41055,-0.30854,0.63517,-0.10449,-0.10452,-0.56361,-0.10449,0.86472,0.32912,0.15059,-0.64013,-0.2575,0.78819,0.55868,-0.43604,-0.81865,-0.28306,0.63514,0.38011,0.17609,-0.23198,-0.30849,0.63518,0.15056,-0.33406,-0.86969,-0.20652,0.91574,0.38013,0.2271,-0.61457,-0.20651,0.53315,0.074038,-0.30853,-0.5891,0.022986,0.89026,0.30361,0.4311,-0.56359,-0.20649,0.45667,0.099546,-0.46156,-0.61465,0.099552,0.91573,0.38013,0.43116,-0.23202,-0.46159,0.38006,-0.43607,-0.43602,-0.51254,0.27813,1.3493,0.30364,0.099588,-0.84419,-0.41056,0.73718,0.099546,-0.10452,-0.5891,-0.02798,0.53315,0.32915,0.17606,-0.46154,-0.41054,0.55869,0.43113,-0.1555,-0.3086,-0.48705,0.7372,0.12505,0.43113,0.12497,-0.81855,0.53313,0.35457,-0.28302,-0.6146,-0.2065,0.78821,0.35461,0.32913,-0.41056,-0.13001,0.53322,0.023035,-0.51264,-1.0482,-0.23207,1.1708,0.76275,0.20158,-0.71662,-0.35959,0.30366,1.0433,-0.10447,-0.69111,-0.43609,0.58411,0.12504,-0.027987,-0.43607,-0.12999,0.89021,0.25261,-0.12996,-0.5126,-0.2065,1.0177,0.22712,0.12505,-0.48709,-0.33401,0.63518,0.30363,-0.18101,-0.89516,-0.15552,0.83922,0.63522,0.68625,-0.28303,-0.48711,0.12501,-0.13002,-0.48708,-0.283,-0.1045,0.7882,0.30361,0.099564,-0.20649,-0.002436,0.48216,0.35461,-0.46157,-0.74212,-0.28302,0.86472,0.38011,-0.053451,-0.51258,-0.078996,0.40563,0.40561,-0.18107,-0.81862,-0.33401,1.1708,0.43117,0.3036,-0.51255,-0.43606,0.45666,0.17604,-0.43608,-0.64014,-0.053464,1.1962,-0.053446,0.50769,-0.078984,-0.30854,0.27808,0.15054,-0.15549,-0.51259,0.074062,0.48215,0.53315,-0.053427,-0.43606,-0.35954,0.32909,0.074062,-0.1045,-0.38506,-0.2575,0.66068,0.38011,0.38013,-0.002472,-0.48707,0.25259,-0.053439,-0.28305,-0.48711,-0.13002,0.76267,0.50766,0.023065,-0.15551,-0.43606,0.32915,-0.053439,-0.181,-0.53811,0.074062,0.91573,0.76272,0.022986,-0.5891,-0.35957,0.35462,0.55866,-0.078977,-0.6146,-0.58912,0.32913,0.78824,0.30364,0.099479,-0.74209,0.22708,0.38012,-0.38506,-0.43607,0.15058,0.96679,0.35461,-0.053495,-0.30856,-0.69111,-0.027962,0.38013,0.15057,-0.64013,-0.10448,0.5332,0.8647,0.099515,-0.30851,-0.56358,0.43117,0.27808,-0.58905,-0.81865,-0.38508,0.53313,0.94125,0.15055,-0.20653,-0.48704,0.53314,0.78817,-0.25746,-0.64011,-0.41057,0.15056,0.32907,0.20161,-0.002443,0.27814,0.20156,0.22707,-0.38509,-0.48706,-0.15551,0.40565,0.35461,0.074062,-0.30858,-0.2575,0.25267,0.58416,-0.48709,-0.38512,-0.41061,0.15055,0.43117,0.35464,0.023041,-0.48704,-0.10445,0.68621,0.023072,-0.5636,-0.28308,0.4056,0.25259,0.15056,-0.10447,-0.15551,0.15057,0.30364,-0.35953,-0.38508,-0.35955,0.20155,0.38014,0.48214,-0.053458,-0.15549,-0.027969,0.35463,-0.5126,-0.38506,-0.41054,0.50765,0.50766,0.20155,-0.027956,-0.12996,0.02301,0.099546,-0.30856,-0.48706,-0.35958,0.30361,0.60969,0.35465,0.1506,-0.13004,-0.64006,0.48218,0.022998,-0.46157,-0.56365,0.32911,0.50767,0.73721,-0.078959,-0.46159,-0.48703,0.40557,-0.23202,-0.35956,-0.69108,0.30358,0.81373,0.32911,-0.2065,-0.38507,-0.181,0.35462,-0.078977,0.074062,0.12508,0.1251,0.50757,-0.283,-0.28305,-0.56358,-0.41059,0.81373,0.25259,-0.53798,-0.48707,0.22708,0.83917,0.15054,-0.23205,-0.283,-0.078984,0.27811,0.1761,-0.23204,-0.48711,-0.69103,0.45664,0.099583,0.048536,-0.51257,-0.30854,0.60965,0.53304,-0.41049,-0.23199,-0.30846,0.73718,0.40559,0.074038,0.048463,-0.43604,0.22708,-0.18101,-0.43603,-0.28303,0.074033,0.40561,-0.002443,-0.05347,-0.15548,0.099577,0.35461,-0.4871,-0.58914,-0.002436,0.2781,0.53315,0.17609,-0.053495,-0.6146,-0.25753,0.32911,-0.027974,-0.25753,-0.35951,0.15054,0.7882,0.15059,-0.078953,-0.69111,-0.002491,0.55866,0.048512,-1.0736,-0.61462,-0.027969,0.94125,0.38011,-0.027974,-0.15554,-0.51254,0.50769,-0.20653,-0.53809,-0.25756,0.048536,0.71169,0.32914,0.023047,-0.33402,-0.15548,0.023017,-0.41057,-0.38508,-0.74216,0.023054,0.86476,0.86479,0.22708,-0.5891,-0.51259,0.17603,0.074075,-0.18102,-0.41057,-0.053464,0.78821,0.023023,-0.053451,-0.7676,-0.15551,0.60965,0.22701,-0.079002,-1.1247,-0.1045,0.60969,-0.35946,0.20157,0.048487,0.15053,0.20163,0.023041,-0.25753,-0.53812,-0.12999,0.60965,0.2526,-0.002461,-0.51257,-0.61462,0.40562,-0.1045,-0.181,-0.5891,0.12509,1.0178,0.50767,0.074087,-0.58909,-0.5891,0.17606,-0.23205,-0.23202,-0.46159,0.12507,0.71168,0.20156,-0.10449,-0.69109,-0.46156,0.83921,-0.078941,-0.20652,-0.51257,-0.30849,0.81368,0.20156,-0.12996,-0.56359,-0.41058,0.55864,-0.07899,-0.35956,-0.18105,0.20164,1.2219,-0.002485,-0.3851,-1.0482,-0.48705,0.81373,0.30361,-0.41055,-0.6146,-0.053525,0.71171,0.22711,0.30364,-0.48708,-0.51257,0.40561,0.099528,-0.28303,-0.56354,0.074051,0.89023,0.40562,0.12503,-0.53809,-0.97162,0.22708,0.048561,0.09954,-0.41062,-0.15551,0.6862,-0.002461,0.099577,-0.6911,-0.53808,0.73719,0.22708,-0.28304,-0.69111,-0.5126,0.60965,0.074069,0.38014,-0.30851,0.17614,0.35459,-0.15553,-0.61463,-0.97171,0.023035,0.94125,-0.027987,0.22713,-0.38505,-0.15551,0.48213,-0.15552,-0.30855,-0.6911,-0.15553,0.68617,0.5332,0.17611,0.023084,-0.61462,0.099546,0.023029,-0.51254,-0.69117,-0.20649,1.0178,0.2271,0.27805,-0.6146,-0.28306,0.22714,0.45661,-0.25748,-0.76763,-0.002491,1.1198,0.048512,-0.28303,-0.69113,-0.10444,0.83922,0.048561,-0.33407,-0.69113,-0.35957,0.68621,0.15057,0.15062,-0.23204,-0.56361,0.78822,-0.002454,-0.38504,-0.94623,-0.23199,0.96676,0.27817,0.099552,-0.66562,-0.51258,0.89021,-0.053482,-0.64012,-0.69113,-0.20651,1.1198,0.60967,0.22712,-1.0737,-0.76764,0.91573,0.45664,-0.078972,-0.9972,-0.33405,1.0432,0.22708,0.04858,-0.33402,-0.20648,1.0942,-0.15549,-0.28303,-0.81865,-0.1555,0.55863,0.32913,0.099564,-0.41056,-0.81864,0.78821,0.17606,-0.28303,-0.76767,-0.002485,0.83923,0.1506,0.30361,-0.58906,-0.41053,0.66069,0.074051,-0.002491,-0.8442,-0.18105,1.0943,0.12504,-0.053458,-0.69111,-0.15553,0.71172,0.12508,-0.43607,-0.89515,-0.18101,1.3239,0.25262,-0.10449,-0.46157,-0.28305,0.66067,0.15057,0.073989,-0.66561,-0.0535,0.48219,0.074075,0.099552,-0.43608,-0.56358,0.99224,0.048585,-0.33402,-0.86968,-0.1045,1.1708,0.50763,-0.2065,-0.6656,-0.4871,0.66068,-0.053476,-0.23201,-0.84417,-0.33407,1.2728,0.48213,0.15059,-0.56358,-0.46156,0.96677,0.32911,-0.20652,-0.84417,-0.10451,0.78821,0.25257,-0.28303,-0.74211,-0.28302,0.66067,0.27811,-0.28305,-0.64011,-0.027974,1.0433,0.25256,-0.18097,-0.74208,-0.18097,0.96669,-0.10449,-0.79305,-0.46163,-0.23203,1.1962,0.22711,0.3546,-0.51258,0.074033,0.81375,0.20161,-0.46157,-0.94619,-0.4871,0.91569,0.074075,0.2271,-0.35951,-0.078941,0.68617,0.38013,-0.38508,-0.89519,-0.10447,0.99221,0.17607,0.15057,-0.41054,-0.35952,0.53314,0.15057,-0.18101,-0.53807,-0.28306,1.0943,0.71167,-0.078977,-0.86966,-0.23203,0.58417,0.048573,-0.10449,-0.66562,0.023017,0.78823,0.66068,0.43108,-0.69107,-0.35954,0.89023,-0.002479,-0.38505,-0.61463,-0.20647,0.91571,0.2781,0.07402,-0.97169,-0.078972,1.0178,0.25261,-0.25753,-0.9462,-0.20652,0.99226,0.66072,0.17608,-0.56358,-0.41058,0.63518,0.2271,-0.30855,-1.0227,-0.28306,0.81371,0.48218,0.22708,-0.41054,-0.43606,0.58415,0.099546,-0.41056,-0.33409,0.074038,0.89027,0.12514,0.15057,-0.79316,-0.10452,0.78823,0.1251,-0.33404,-0.71664,0.17603,0.99229,0.30361,-0.23202,-0.58911,-0.35955,0.53317,-0.002479,-0.18099,-0.25751,-0.053482,0.7627,0.55864,0.023035,-0.66561,-0.28302,0.53314,0.12507,-0.38505,-0.61464,0.048555,1.0943,0.22707,0.12506,-0.35952,-0.15552,0.30363,0.099552,-0.079033,-0.84411,-0.28301,0.68618,0.63516,0.2016,0.023035,-0.18101,0.55869,-0.12998,-0.35954,-0.66561,-0.25755,0.68616,0.30361,0.27809,-0.283,-0.2065,0.68621,0.48213,-0.15549,-0.41058,-0.10452,0.50765,-0.002472,-0.12999,-0.41055,-0.1555,0.68622,0.2526,-0.23201,-0.64012,-0.18104,0.6352,0.43115,0.22707,-0.18098,-0.35954,0.48213,0.40563,-0.25756,-0.6401,-0.18102,0.58416,0.50767,0.30361,-0.23197,-0.74211,0.32908,0.40557,-0.12998,-0.61456,-0.2065,0.78821,0.48214,-0.027993,-0.41054,-0.15549,0.48214,0.25262,-0.027974,-0.84419,-0.53809,0.4566,0.5587,0.63523,-0.05347,-0.5126,0.099546,0.048518,-0.20652,-0.69111,-0.12997,0.91574,0.96675,0.023054,-0.38504,-0.28306,0.35461,0.17608,0.20152,-1.0737,-0.38504,0.91573,0.53318,0.12506,-0.35955,-0.5126,0.15059,0.2271,-0.15547,-0.48705,-0.053488,0.86466,0.35461,0.12509,-0.28305,-0.30851,0.023059,0.048543,-0.13001,-0.30854,0.15055,0.76273,0.38012,0.074081,-0.46159,-0.20655,-0.002467,0.40566,-0.027969,-0.46156,0.12506,0.2781,0.023035,0.099559,-0.12998,-0.078935,0.27808,0.4056,-0.25754,-0.69113,-0.078972,0.20155,0.20161,0.20156,-0.002467,-0.33401,0.22713,0.58417,-0.33406,0.22697,-0.58901,0.099588,0.89021,0.40558,0.12504,-0.43606,0.04858,0.27808,-0.41056,-0.64014,-0.38506,0.48214,0.60971,0.15057,-0.232,-0.23199,0.15058,0.20159,-0.28305,-0.35959,-0.41058,0.58418,0.86478,0.38011,-0.51255,-0.61464,0.32905,0.2526,-0.25753,-0.38505,-0.30847,0.35461,0.35463,0.48209,-0.053506,-0.56356,0.25257,0.15058,-0.25751,-0.079021,0.023029,0.55869,0.22711,0.30363,-0.10447,-0.6656,0.02301,0.32909,-0.027956,-0.43609,-0.25753,0.40561,0.48216,-0.053488,-0.13001,-0.436,0.2271,0.40564,-0.027969,-0.56362,-0.25751,0.20157,0.86475,0.2271,-0.13001,-0.30854,-0.053488,0.50762,-0.181,-0.43606,-0.43604,0.20159,0.4566,0.35462,-0.053495,-0.30853,0.099559,0.20158,-0.25753,-0.15556,-0.23201,0.38014,0.78822,0.3801,-0.12998,-0.64011,-0.05347,0.4311,-0.23201,-0.48708,-0.28304,0.12505,0.53318,0.27812,-0.078959,-0.15548,0.12506,0.074013,-0.43607,-0.41059,-0.10447,0.60968,0.50765,0.09954,-0.02798,-0.25751,-0.48701,0.32911,0.023035,-0.13004,-0.15549,0.15055,0.43117,0.15059,-0.078959,-0.30856,-0.15553,0.15057,-0.20652,-0.58908,-0.35954,0.25262,0.86473,0.27809,-0.15549,-0.46159,-0.002454,0.63519,-0.15549,-0.84419,-0.13001,0.30362,0.81374,0.07402,-0.28301,-0.12999,-0.28302,0.15056,-0.28303,-0.58911,-0.20651,0.27809,0.89027,0.32911,-0.12997,-0.41055,-0.15553,0.27811,-0.28305,-0.2065,-0.28303,0.2526,0.63515,0.12508,-0.23203,-0.35957,-0.38508,0.25263,0.30359,-0.33401,-0.58911,0.12504,0.63514,0.15057,-0.027993,-0.15548,-0.15545,0.40571,0.022968,-0.58907,-0.33406,0.15057,0.60965,0.09957,-0.23205,-0.74212,-0.25754,0.81374,0.048549,-0.23204,-0.61463,-0.027969,0.60968,0.25262,0.2271,-0.51262,-0.41057,0.22708,0.099577,-0.25753,-0.51258,-0.079008,0.71171,0.48214,0.17609,-0.61455,-0.51257,0.40561,-0.15553,-0.30855,-0.25759,-0.053458,0.40564,0.20161,0.30361,-0.56355,-0.20652,0.50764,-0.002461,-0.33409,-0.48707,-0.23196,0.96674,0.3291,0.17607,-0.64013,-0.38504,0.71171,-0.61463,-0.43607,-0.35954,0.27815,0.53314,0.099583,-0.053476,-0.38503,-0.15552,0.55866,-0.25755,-0.35955,-0.51261,-0.13001,0.7372,0.22708,0.2271,-0.56354,-0.35954,0.8392,-0.053482,-0.18102,-0.51257,-0.30855,0.86474,0.22708,-0.002436,-0.74216,-0.76765,0.91574,-0.053439,-0.51254,-0.81865,0.023041,0.96673,0.32912,-0.18103,-0.38503,-0.25753,0.60968,-0.13001,-0.12998,-0.66565,-0.283,0.86475,0.60971,0.15056,-0.71663,-0.64011,0.32911,-0.20653,-0.33405,-0.43611,-0.232,0.73723,0.22712,0.20155,-0.48708,-0.1045,0.78821,-0.28297,-0.74215,-0.69111,0.12502,1.0178,0.17607,0.023054,-0.58908,-0.74214,0.76267,-0.053482,-0.20652,-0.61462,-0.18101,1.0433,0.22713,0.023035,-0.53806,-0.46159,0.32911,0.074013,-0.18097,-0.84414,-0.23201,0.83915,0.50765,0.2271,-0.43604,-0.13005,0.2781,-0.33406,-0.33405,-0.46158,-0.027974,0.89024,0.30357,-0.28298,-0.61458,-0.46156,0.53314,-0.15546,-0.20651,-0.64012,-0.2575,0.99227,0.17608,0.22707,-0.4871,-0.35956,0.35464,-0.10451,-0.38506,-0.33409,-0.43604,0.76269,0.60973,0.48218,-0.48706,-0.86969,0.63517,0.15054,-0.28305,-0.64012,0.023035,0.89024,0.17609,0.12504,-0.64011,-0.66556,0.66072,0.17604,-0.33406,-0.66562,-0.028018,0.94126,0.2526,-0.002472,-0.66559,-0.43605,0.40561,-0.053464,-0.053495,-0.94617,-0.35955,0.7117,0.58414,0.074093,-0.38506,-0.53807,0.45667,0.30356,-0.028018,-0.6146,-0.51259,0.73721,0.2526,0.074069,-0.71661,-0.46157,0.63518,0.048555,-0.51262,-0.84415,-0.053451,1.1708,0.60969,-0.002454,-0.92072,-0.86968,0.58416,0.38013,0.048561,-0.76764,-0.30857,0.86472,0.17609,0.25262,-0.51257,-0.51257,0.76271,0.35464,-0.18101,-0.76766,-0.30855,0.7117,0.12508,0.023059,-0.53809,-0.38508,0.66066,0.30361,0.15056,-0.74211,-0.23202,0.53319,0.22707,0.074057,-0.53807,-0.1555,0.55865,0.20158,-0.35954,-0.99719,-0.15551,1.0433,0.30361,-0.23203,-0.71662,-0.12998,0.86473,0.023035,-0.078984,-0.61463,-0.20652,0.96675,0.099559,0.074062,-0.66561,-0.51257,0.81375,0.099528,-0.25751,-0.84418,-0.30855,0.94124,0.3291,0.35464,-0.76764,-0.41055,0.7372,0.023035,-0.28306,-0.84414,-0.078972,0.9923,0.27808,-0.15547,-0.97163,-0.30858,0.8392,0.12504,-0.28305,-0.41059,0.099583,1.1708,0.38014,0.12505,-0.99718,-0.41054,0.81372,-0.12997,-0.13,-0.84417,-0.30852,1.0942,0.40565,0.25258,-0.46159,-0.46155,0.58417,-0.078972,-0.41057,-0.84419,-0.053464,1.1708,0.55868,-0.002461,-0.79315,-0.38504,0.81373,0.17603,-0.56361,-0.86968,-0.002461,1.1453,0.58415,0.12509,-0.69111,-0.079033,0.6607,-0.28296,-0.48705,-0.69115,0.22703,1.1963,0.22711,-0.053451,-0.5126,-0.25753,0.45662,0.30362,-0.41057,-0.74216,-0.20654,1.1452,0.38018,0.68628,-0.46157,-0.43604,0.3036,0.048536,-0.35955,-0.48708,-0.28304,1.1453,0.22705,-0.002485,-0.84414,-0.2575,1.0688,0.3036,-0.2575,-0.74212,-0.2065,1.0177,0.32911,0.25259,-0.53811,-0.35955,0.63518,0.2781,-0.30853,-0.76769,-0.002503,0.35469,0.45664,0.30364,-0.41055,-0.18103,0.58413,0.17609,-0.1555,-0.81865,-0.33408,0.91576,0.91579,0.43115,-0.38503,-0.71666,0.25258,0.023035,-0.51258,-0.74216,-0.079008,0.99224,0.45664,0.30361,-0.46156,-0.12998,0.71172,0.099564,-0.38509,-0.46164,-0.487,0.83923,0.50766,0.48212,-0.43603,-0.20649,0.7882,0.22708,-0.10456,-1.0737,-0.35955,0.45667,0.2271,0.25257,-0.30853,-0.053488,0.6862,0.25255,-0.30851,-0.86966,0.074057,1.1198,0.50765,0.2526,-0.48707,-0.46157,0.40561,0.17607,-0.51261,-0.89517,-0.12998,1.0943,0.50767,0.22711,-0.43607,-0.35954,0.53313,-0.027969,-0.25754,-0.74212,-0.10449,0.7372,0.43111,0.45661,-0.5891,-0.28302,0.58417,0.20159,-0.30854,-0.43609,-0.25748,0.83919,0.32912,-0.053427,-0.48704,-0.15553,0.48214,0.68611,-0.51251,-0.84417,-0.23203,1.0433,0.63518,0.35464,-0.48706,-0.33404,0.43112,-0.079002,-0.41056,-0.56361,-0.15549,0.94123,0.2781,-0.12999,-0.28303,-0.20652,0.78822,0.074051,-0.5126,-0.51262,-0.25751,0.86475,0.38014,0.12505,-0.35951,-0.12998,0.58418,0.3291,-0.38506,-0.92066,-0.33407,0.71168,0.66069,0.48216,-0.25752,-0.33402,0.27808,0.12507,-0.33404,-0.5381,-0.10449,0.63515,0.2781,0.35459,-0.385,-0.18098,0.66069,0.45666,-0.30853,-0.56359,-0.25756,0.55867,0.43112,0.074051,-0.35954,-0.35955,0.43112,0.15055,-0.20648,-0.38508,-0.078972,0.73718,0.45666,0.20161,-0.30852,0.048518,0.023023,0.30359,-0.20653,-0.43607,-0.23201,0.099619,0.38016,0.30358,-0.15551,-0.25754,0.45663,0.40558,-0.48703,-0.53809,-0.20653,0.66067,0.66067,0.30363,0.12509,-0.58911,-0.027969,0.20157,-0.28304,-0.35954,-0.18099,0.53314,0.45664,0.2271,-0.12999,-0.5381,0.22706,0.35462,0.023059,-0.66564,-0.23205,0.50764,0.45662,0.40563,-0.053427,-0.15547,0.22707,0.17609,-0.25752,-0.48709,-0.41057,0.38014,0.17606,0.074038,-0.12999,-0.30851,0.15059,0.53317,-0.15551,-0.33405,-0.027987,0.30363,0.48216,0.27811,-0.28302,-0.30856,0.3801,0.023072,-0.41057,-0.41058,-0.23203,0.43115,0.40566,0.66068,-0.078966,-0.35953,0.38013,0.35464,-0.33406,-0.30853,-0.33404,0.27808,0.27808,0.15056,-0.23201,-0.38503,0.048549,0.20157,-0.002461,-0.2065,-0.2065,0.40561,0.45664,0.2526,-0.33404,-0.58908,0.17608,0.25259,-0.053439,-0.28306,-0.38505,0.17609,0.53314,0.048543,-0.20652,-0.027974,0.22705,0.2271,-0.30855,-0.41056,-0.027974,0.43112,0.50767,0.15059,-0.23198,-0.76761,-0.13001,0.32912,0.25253,-0.41054,-0.13,0.43109,0.45664,0.25259,-0.232,-0.30853,-0.18102,0.32912,-0.027962,-0.6146,-0.53811,0.17607,0.89023,0.32913,0.048555,-0.25753,0.074081,0.20157,-0.25753,-0.25752,-0.33405,0.099577,0.53313,0.27808,-0.078966,-0.46159,-0.23202,0.3801,-0.25754,-0.48706,-0.46156,0.3291,0.60968,0.40562,0.099608,-0.13001,-0.23203,0.074093,-0.20657,-0.48708,-0.13001,0.35465,0.50765,-0.30857,-0.1555,-0.2575,-0.02795,0.25258,-0.28303,-0.38508,-0.43607,0.12505,0.63518,0.43115,0.09957,-0.48708,-0.13001,0.25262,-0.33404,-0.38503,-0.23202,0.15056,0.66067,0.25256,-0.078984,-0.46159,-0.15548,0.53317,-0.2065,-0.53809,-0.51258,-0.181,0.91575,0.30364,0.048531,-0.5891,-0.20652,0.35464,-0.23201,-0.33405,-0.33404,0.099521,0.48214,0.048531,-0.10447,-0.28298,-0.078966,0.48214,-0.25758,-0.43607,-0.46158,-0.002448,0.60967,0.45664,0.12505,-0.35956,-0.10449,0.40564,0.048585,-0.30856,-0.53809,-0.20653,0.4821,0.2271,-0.002461,-0.56359,-0.28298,0.43112,-0.05347,-0.181,-0.30853,-0.25751,0.89021,0.35461,-0.74204,-0.4361,-0.25753,0.55862,-0.053488,-0.079002,-0.51262,0.12507,1.0433,0.38018,-0.027969,-0.6146,-0.56358,0.22708,-0.07899,-0.53812,-0.76766,-0.30857,0.99227,0.60967,0.40567,-0.38504,-0.41054,0.60966,-0.027938,-0.25753,-0.79313,-0.18105,0.63517,0.17607,-0.07899,-0.56359,-0.46157,0.43112,0.023035,-0.25753,-0.41057,-0.053446,0.6607,0.15059,0.023041,-0.35952,-0.23204,0.40563,-0.079002,-0.18099,-0.79315,-0.334,0.73717,0.38013,-0.0535,-0.41056,-0.61462,0.45664,0.074026,0.074069,-0.56359,-0.10449,0.6862,0.17608,-0.002461,-0.51255,-0.30853,0.50765,-0.002454,-0.18101,-0.64012,-0.28302,0.86471,0.17606,0.074087,-0.46155,-0.15553,0.55865,-0.13001,-0.33403,-0.51259,-0.15549,0.63517,0.50762,-0.30846,-0.15553,-0.6146,0.50765,-0.05347,-0.51258,-0.74214,-0.053476,0.99229,0.40562,-0.35953,-0.64013,-0.56358,0.5332,0.22708,0.023023,-0.5126,-0.28307,0.71168,0.55867
-0.66563,-0.23202,0.89026,0.15057,-0.20651,-0.58909,-0.46156,0.81375,-0.28306,-0.43607,-0.76766,0.048555,1.0943,0.27811,0.38012,-0.51257,-0.46159,0.45663,0.15056,-0.079026,-1.3796,0.048531,0.96677,-0.053439,0.5586,-0.69113,-0.8186,0.50765,0.40555,0.27802,-0.43611,-0.232,0.83919,0.15055,0.27812,-0.81862,-0.41053,0.83926,-0.053464,-0.56361,-1.1758,-0.00243,0.63517,0.43116,0.074038,-0.33399,-0.181,0.30356,-0.25757,-0.35957,-0.38506,-0.28306,0.73719,0.43112,0.71176,-0.5381,-0.71662,0.43112,-0.02795,-0.23203,-0.86966,-0.33406,0.89024,0.38014,0.023096,-0.43606,-0.30857,0.48214,0.074038,-0.18101,-0.66565,-0.51254,0.71171,0.45666,0.17607,-0.6146,-0.35957,0.76275,-0.053488,-0.25756,-0.86967,-0.33404,1.0433,0.38016,-0.20652,-0.6656,-0.33402,0.94124,-0.15549,-0.56362,-0.53806,0.023047,0.89024,0.074026,-0.13002,-0.66561,-0.53811,0.6607,0.17606,0.04858,-0.71665,-0.027944,0.76269,0.17607,-0.15551,-0.81862,-0.20649,0.81375,0.12506,-0.30852,-0.76766,-0.23204,0.99223,-0.002461,0.023059,-0.28308,-0.28305,0.96669,-0.56351,-0.38503,-0.69116,-0.38508,0.94127,0.38012,0.099564,-0.69111,-0.38507,0.94127,0.60973,-0.027969,-1.0227,-0.66564,0.76269,0.38014,0.2016,-0.51254,-0.61464,0.4566,0.17609,-0.20652,-0.81867,-0.20651,1.0433,0.2271,0.12506,-0.51258,-0.15548,0.81371,-0.078996,-0.1045,-0.76764,-0.079002,1.0687,0.2526,0.048543,-1.5582,-0.6911,1.2728,0.12506,-0.027993,-0.92068,-0.35957,1.0688,0.22715,0.35459,-0.48705,-0.10448,0.78821,-0.027962,-0.46158,-0.99721,-0.181,1.3494,0.15057,-0.33405,-0.92069,-0.51261,1.2219,0.91581,-0.79318,-1.4308,-0.4361,1.3494,0.6097,0.17609,-0.66561,-0.43606,0.76273,0.35461,-0.38504,-0.9207,-0.38508,0.86472,0.25257,0.023059,-0.66561,-0.13,0.91574,0.25258,-0.46156,-0.79317,-0.28303,1.1197,-0.027907,0.32909,-0.64009,-0.23203,1.0178,0.048536,-0.58914,-0.92068,0.12508,1.2218,0.074044,0.17607,-0.53807,-0.18098,0.76268,-0.30856,-0.58914,-0.84416,-0.1555,0.91573,0.43117,0.60969,-0.58908,-0.12998,0.48211,-0.002461,-0.43607,-0.84417,-0.07899,0.91571,0.40565,0.76274,-0.6656,-0.9462,0.27805,0.30362,0.048549,-0.76758,-0.232,1.0177,0.43112,-0.002418,-0.61459,-0.20652,0.89021,0.27808,-0.46158,-1.1757,-0.4871,0.89024,0.32909,0.04858,-0.38504,-0.23199,1.0177,0.12509,0.048549,-0.84416,-0.30855,0.76268,0.2271,0.048549,-0.53806,-0.23206,0.40562,0.074075,-0.15551,-0.48706,0.17607,1.1453,0.12508,0.17606,-0.5891,-0.30855,0.68621,-0.43604,-0.2575,-0.053458,0.2526,0.58413,-0.079026,0.099552,-0.64011,-0.41057,0.76272,0.27811,-0.48709,-0.74212,-0.30853,0.73718,0.17609,0.3036,-0.46153,-0.12999,0.7372,0.12507,-0.053537,-0.94614,-0.38507,0.96676,0.60964,0.12508,-0.46158,-0.43602,0.7627,0.048585,-0.25754,-0.84418,-0.43613,1.1963,0.48216,0.15059,-0.61462,-0.38503,0.73718,0.63523,-0.25752,-1.0992,-0.92073,1.0178,0.6862,0.2016,-0.74214,-0.078935,1.1708,0.12507,-0.58914,-1.0227,-0.15551,0.78821,0.6607,0.55869,-0.25749,-0.43604,0.53313,-0.053476,-0.41058,-0.94618,-0.15552,0.71171,0.48211,0.2526,-0.51255,0.099534,0.71172,0.1761,-0.10449,-0.64015,0.30356,0.66065,0.074075,0.074057,-0.23198,-0.3595,-0.002472,0.22706,-0.053451,-0.69113,-0.56364,0.71166,0.45664,0.45664,-0.51254,-0.23202,0.94127,0.17607,-0.56361,-0.69112,-0.20653,1.0178,0.71166,0.20163,-0.5891,-0.6401,0.58416,0.55866,0.023059,-0.66563,-0.38509,0.71167,0.50767,0.38014,-0.38502,-0.51257,0.58417,0.099564,-0.33405,-0.86968,0.073971,0.25267,-0.053421,0.20159,-0.38508,-0.25753,0.89024,0.60965,-0.18101,-0.61462,-0.12997,0.89023,0.22711,0.074051,-0.38501,-0.43608,0.63518,0.25257,-0.18098,-0.43607,-0.33404,0.86471,0.15056,0.22709,-0.23201,-0.15548,0.4056,0.023023,-0.35957,-0.6656,-0.13002,0.66067,0.50763,0.38013,-0.283,-0.232,0.45666,0.15056,-0.23201,-0.74214,-0.18101,0.73726,0.45661,0.048549,-0.30856,-0.3085,0.50765,0.12507,-0.33405,-0.69111,0.12498,0.71171,0.48213,0.048561,-0.7421,-0.46157,0.83925,0.38007,-0.38506,-0.61458,-0.1555,0.94127,0.58417,-0.027969,-0.33404,-0.46159,0.48217,0.22707,-0.4871,-0.43606,0.25259,0.78821,0.53316,-0.027987,-0.027913,-0.30854,0.43113,-0.18103,-0.4871,-0.79314,-0.23205,0.73718,0.66069,0.25262,-0.20649,-0.232,0.66069,0.099583,-0.23203,-0.69115,-0.25754,0.73725,0.50766,0.12507,-0.15555,-0.58905,0.66067,0.099588,-0.18103,-0.51258,-0.053488,0.60967,0.35459,0.2016,-0.33402,-0.30851,0.38011,0.099552,-0.41058,-0.33403,-0.25752,0.53312,0.45664,0.35465,-0.10446,-0.25751,0.2781,0.40564,-0.28305,-0.58911,-0.33407,0.73717,0.53314,0.023065,-0.2065,0.074062,0.73714,-0.10447,-0.51259,-0.66564,-0.20655,0.60967,0.63518,0.45666,-0.334,-0.38504,0.6352,0.074075,-0.33407,-0.64012,-0.18103,0.81373,0.99227,0.12507,-0.30852,-0.56358,0.35461,0.09954,-0.43606,-0.61462,-0.28306,0.35461,0.86476,0.78825,-0.027956,-0.46156,0.15054,0.12505,-0.25751,-0.64014,-0.23201,0.71171,0.63517,0.17607,-0.46156,-0.2065,0.17609,0.58416,-0.232,-0.66565,-0.61462,0.48215,0.5842,0.45667,-0.1045,-0.43608,0.12504,0.45663,-0.30852,-0.61462,-0.10452,0.20161,0.53317,0.27812,-0.20651,-0.53811,0.099552,0.27809,-0.15551,-0.48707,-0.12999,0.66067,0.55867,0.17607,-0.23201,-0.12997,0.099546,0.27805,-0.15549,-0.38502,-0.33407,0.20163,0.68618,0.074038,-0.46155,-0.38506,0.22709,0.43114,-0.18101,-0.33405,-0.5891,0.38011,0.48214,0.25258,0.023084,-0.35954,0.12507,0.50765,-0.18101,-0.41054,-0.28305,0.15056,0.40565,0.20157,-0.35956,-0.12998,0.35462,0.35461,-0.12999,-0.20652,-0.48712,0.12504,0.81372,0.43117,0.099595,-0.61462,-0.053495,0.50768,-0.23203,-0.5126,-0.66562,0.3546,0.66068,0.43114,-0.05347,-0.46157,0.12509,0.45666,-0.25752,-0.56358,-0.25755,0.25257,0.60965,0.099559,0.023023,-0.64007,0.17609,0.58414,-0.23201,-0.079033,-0.46154,0.32912,0.27812,0.099552,-0.027969,-0.38505,0.048567,0.48213,-0.0535,-0.38505,-0.18102,0.099546,0.3291,-0.053476,-0.053451,-0.5891,0.1506,0.40561,0.20161,-0.2065,-0.41059,-0.18101,0.66065,0.099577,-0.12998,-0.5891,-0.027993,0.45663,-0.181,-0.33405,-0.35956,0.27809,0.71173,0.40564,-0.027944,-0.46158,-0.15549,0.2526,-0.23203,-0.35956,-0.18105,-0.002479,0.66073,0.20158,-0.30854,-0.69113,0.074069,0.55867,-0.30854,-0.28302,-0.18105,0.2271,0.60967,0.35465,-0.18103,-0.84416,-0.053482,0.73723,0.22708,-0.43607,-0.61462,0.15057,0.6862,0.023041,-0.35955,-0.5636,0.023054,0.6097,-0.18098,-0.28302,-0.41058,0.12506,0.78819,0.074075,-0.12999,-0.25755,-0.028042,0.048598,-0.46156,-0.30854,-0.28305,0.22707,0.7372,0.38013,-0.15543,-0.48709,-0.13001,0.27814,-0.30853,-0.12999,-0.25754,-0.053513,0.78821,0.20158,-0.10449,-0.51257,-0.027969,0.48216,-0.35954,-0.5636,-0.69113,0.12508,0.83923,0.45664,0.048561,-0.38506,-0.20649,0.53314,-0.027969,-0.2065,-0.51257,-0.15552,0.60965,0.35463,0.099577,-0.58913,-0.41057,0.35462,-0.23201,-0.28304,-0.61462,0.30361,0.94123,0.22709,-0.027956,-0.66557,-0.33406,0.43114,-0.079002,-0.30856,-0.38506,0.074038,0.78819,0.20162,-0.002436,-0.64007,-0.25749,0.45662,-0.20652,-0.12999,-0.58914,-0.30856,0.7372,0.40564,0.17609,-0.35952,-0.18103,0.048543,-0.30851,-0.23204,-0.33405,0.17609,0.76272,0.43114,0.12509,-0.6146,-0.5381,0.35459,-0.15551,-0.25753,-0.48708,-0.027956,0.89024,0.38013,-0.002454,-0.66562,-0.38507,0.45663,-0.25753,-0.28306,-0.43609,0.04858,0.86473,0.25265,-0.13,-0.53811,-0.25753,0.83915,-0.38506,-0.2065,-0.64011,-0.58907,1.0432,-0.002394,0.2271,-0.43604,-0.12996,0.66067,-0.38508,-0.10447,-0.53809,-0.078977,0.66064,-0.002479,-0.02795,-0.48706,-0.46159,0.60966,0.12505,-0.38505,-0.53807,-0.002467,0.81373,0.17608,0.15057,-0.51257,-0.48708,0.50763,-0.10448,-0.35956,-0.56361,-0.10449,1.0433,0.048555,-0.0535,-0.58911,-0.20649,0.6862,-0.078984,-0.23199,-0.61462,-0.18098,0.94121,0.09957,-0.0535,-0.64011,-0.30854,0.63519,0.048531,-0.18099,-0.56361,-0.33403,0.78821,0.20159,0.12505,-0.64011,-0.385,0.86469,0.023035,-0.46159,-0.56361,-0.28302,0.6607,0.15056,0.074057,-0.2575,-0.41058,0.7372,-0.12999,-0.15551,-0.71665,-0.12999,0.94124,0.15058,0.09957,-0.58911,-0.43606,0.68619,0.099534,-0.23201,-0.61464,-0.18101,0.89026,0.3036,0.048567,-0.64011,-0.41057,0.60969,0.023035,0.099466,-1.4052,-0.20648,0.89021,0.38011,0.17609,-0.48707,-0.53809,0.6607,-0.027969,-0.1555,-0.53806,-0.20651,0.66067,0.27811,0.25262,-0.51262,-1.0482,0.43113,0.02301,-0.10448,-0.28302,0.023054,0.99226,0.17608,-0.078984,-0.86967,-0.15546,0.7627,0.074069,-0.51261,-1.0482,-0.13,0.73721,0.3291,0.023054,-0.71662,-0.76764,0.81373,0.38012,-0.078996,-0.86966,-0.33405,0.91576,0.2271,-0.15548,-0.64013,-0.56359,0.81369,0.074044,-0.15551,-0.66563,-0.23202,0.94126,0.53317,0.25261,-0.6656,-0.74212,0.73718,-0.28304,-0.43607,-0.84414,-0.30857,0.99227,0.12506,0.30363,-0.38503,-0.48706,0.43111,0.15057,-0.078947,-0.58911,-0.28303,0.86471,0.12507,0.12506,-0.58906,-0.43607,0.7372,-0.12999,-0.41055,-0.86969,-0.33403,0.86472,0.40565,0.27809,-0.71661,-0.33405,0.89024,0.099559,-0.30854,-0.58911,-0.25751,0.94123,0.17609,0.048567,-0.5636,-0.46156,0.63521,-0.027969,-0.25752,-0.81867,-0.61467,0.89023,0.3036,0.40566,-0.385,-0.23202,0.60968,0.099552,-0.51261,-0.92067,-0.33403,0.94125,0.35461,0.023035,-0.89516,-0.35956,0.66067,0.15057,-0.30854,-0.64008,-0.027969,1.0178,0.2781,0.023047,-0.94619,-0.56358,0.73718,0.12505,-0.15551,-0.79318,-0.385,1.0178,0.53317,0.3546,-0.76763,-0.6911,0.6607,-0.053519,-0.20656,-0.94617,-0.15551,1.1708,0.58415,0.074044,-0.64007,-0.56358,0.35458,-0.1555,0.023059,-0.46157,-0.2065,1.0433,0.20158,0.023059,-0.86965,-0.58913,0.86473,0.20159,-0.20652,-0.86967,-0.30854,1.1453,0.35461,-0.002448,-0.97168,-0.69115,0.73718,0.12508,-0.33403,-0.74214,-0.18101,1.1198,0.38011,0.35463,-0.69111,-0.46157,0.63517,0.12507,-0.18103,-0.81864,0.074038,1.0943,0.32915,0.30357,-1.1247,-0.5891,0.63515,0.099552,-0.10449,-0.99725,-0.02798,0.96675,0.60969,0.5077,-0.53809,-0.48705,0.63519,-0.10449,-0.48708,-1.2778,-0.46158,1.0943,0.63521,0.45663,-0.69107,-0.61462,0.83922,0.22707,-0.053482,-0.94619,-0.18102,1.0943,0.53317,0.12506,-0.69111,-0.43607,0.71168,0.048536,-0.48708,-0.71665,-0.33404,1.0178,0.27811,0.25262,-0.71662,-0.15551,0.71169,0.27811,-0.25755,-0.74211,-0.18104,0.96675,0.38011,-0.027974,-0.99721,-0.33404,0.6862,0.32915,-0.25751,-0.86964,-0.23205,1.4769,0.3036,0.074062,-0.41054,-0.28303,0.78821,-0.079008,-0.5891,-0.86969,-0.10447,0.94123,0.38013,0.17611,-0.48705,-0.28302,0.68621,0.023041,-0.43609,-0.71663,-0.20653,0.86473,0.45664,0.17607,-0.66562,-0.33404,0.71168,0.12505,-0.28303,-0.92066,-0.18099,1.0688,0.40562,0.074087,-0.46157,-0.25752,0.76268,0.35461,-0.53804,-0.89516,-0.23211,0.94121,0.40563,0.048604,-0.41054,-0.12999,1.0943,0.074057,-0.71665,-0.99723,-0.20651,1.1708,0.2016,0.048555,-0.64011,-0.30854,0.89023,0.38014,-0.25754,-0.84415,-0.18103,0.99225,0.45665,0.15059,-0.43605,-0.46157,0.83923,0.048555,-0.18102,-0.86968,-0.25753,0.76271,0.38014,0.2781,-0.53809,-0.33404,0.68617,0.30361,-0.15551,-0.38506,-0.002461,0.71169,-0.027987,0.074044,-0.41055,-0.30852,0.78823,0.5332,-0.38505,-1.1247,-0.15553,0.89024,0.27808,-0.002467,-0.51259,-0.20649,0.81372,0.30362,-0.23201,-0.61462,-0.35956,0.89023,0.3546,0.2271,-0.38501,-0.46159,0.58417,0.12505,-0.053482,-0.84415,-0.43606,1.2218,0.55867,0.04858,-0.5381,-0.35954,0.73719,0.15056,-0.181,-0.64012,-0.181,0.91572,0.2526,0.35462,-0.48706,-0.84419,0.27808,0.30361,0.35466,-0.58909,-0.20651,1.0433,0.81373,0.2271,-0.53811,-0.76767,0.58413,0.048536,-0.15551,-0.79314,-0.28305,1.1453,0.6097,0.22708,-0.61461,-0.38505,0.55867,0.099552,-0.41056,-0.71663,-0.2065,0.89021,0.53317,0.17607,0.023029,-0.46156,0.48218,0.20157,-0.38504,-0.61463,0.048567,0.94125,0.45661,0.074057,-0.61461,-0.48707,0.3801,0.43116,-0.23202,-0.58911,-0.23201,1.1453,0.43115,0.32913,-0.56359,-0.38505,0.48213,0.25259,-0.46157,-0.79316,-0.58913,0.71171,0.58418,0.45666,-0.053458,-0.18099,0.55864,0.099552,-0.28304,-0.46155,-0.002467,0.76271,0.30358,-0.05347,-0.46156,-0.35952,0.48213,0.023047,-0.30855,-0.43605,0.074013,0.99224,0.50766,0.27809,-0.71657,-0.48705,0.48213,0.45664,-0.23202,-0.25757,-0.23204,0.73719,0.17608,0.09954,-0.38503,-0.12999,0.40563,0.38011,-0.46157,-0.46156,-0.078972,0.91577,0.4056,0.023054,-0.33404,-0.5891,0.30356,-0.002472,0.023035,-0.38504,0.099559,0.66069,0.45661,0.048555,-0.38505,-0.35954,0.48215,0.20157,-0.41056,-0.61462,-0.15551,0.86472,0.38013,0.27809,-0.43602,-0.13001,0.35462,0.35461,-0.18105,-0.64009,-0.23201,0.58419,0.45661,0.32913,-0.23202,-0.35956,0.45664,0.32913,-0.1555,-0.51264,-0.4616,0.66067,0.53318,0.35462,-0.15548,-0.20649,0.35462,0.22709,-0.33406,-0.74212,-0.33406,0.68619,0.35459,0.38016,-0.33404,-0.25753,0.25258,0.40563,-0.25754,-0.38505,-0.18101,0.53317,0.58417,0.17611,-0.25754,-0.33405,0.12505,0.12509,-0.053495,-0.51257,-0.283,0.38013,0.58413,0.099564,-0.18098,-0.23202,0.35464,0.30358,-0.2065,-0.56362,-0.12999,0.68617,0.25259,-0.027993,-0.30854,-0.027956,0.35461,0.15057,0.17609,-0.38503,-0.027956,0.074013,0.32911,0.074038,-0.35954,-0.43608,0.25259,0.50766,-0.23203,-0.33404,-0.18104,0.78821,0.53313,0.17611,-0.28302,-0.30854,0.17608,0.48214,-0.48705,-0.5381,-0.33409,0.48211,0.53317,0.30364,-0.35949,-0.33404,0.32911,0.55864,-0.5891,-0.64015,-0.25752,0.76272,0.60968,0.22706,-0.10447,-0.35955,0.074051,0.40561,-0.232,-0.43608,-0.18101,0.40563,0.6607,0.20159,-0.30854,-0.41052,-0.00251,0.43112,-0.33404,-0.23201,-0.30855,0.48216,0.32911,0.17606,-0.002485,-0.33403,0.12508,0.27809,-0.20652,-0.30852,-0.33404,0.2271,0.50766,0.22706,-0.181,-0.30853,-0.002405,0.20152,-0.43606,-0.30855,0.074057,0.38008,0.32909,0.048543,-0.02795,-0.2065,0.074038,0.38014,-0.13,-0.69113,-0.30855,0.45664,0.60968,-0.15552,-0.10448,-0.38505,0.2016,0.20156,-0.38503,-0.53812,-0.28302,0.45664,0.55867,0.40561,-0.28302,-0.53807,0.023017,0.45665,-0.20653,-0.25753,-0.30853,0.40561,0.68619,0.20156,-0.15548,-0.43607,0.074087,0.48216,-0.027962,-0.35956,-0.56362,-0.15553,0.27808,0.60964,0.074136,-0.41055,-0.15549,0.58415,0.1506,-0.33405,-0.46159,0.2781,0.53315,0.20159,0.099577,-0.35956,-0.28303,0.25255,-0.23198,-0.43608,-0.33404,0.15054,0.68622,0.40561,-0.002461,-0.6401,-0.07899,0.30363,-0.10447,-0.2065,-0.4616,0.15056,0.58416,0.17604,0.023047,-0.38503,-0.28303,0.55867,-0.12999,-0.69113,-0.58913,0.099559,0.78821,0.17607,0.15057,-0.38506,-0.12996,0.40563,0.048561,-0.35957,-0.46158,0.02301,0.60968,0.40562,-0.027938,-0.58911,-0.35953,0.50765,-0.027956,-0.23203,-0.74215,0.099546,0.66068,0.074044,-0.28303,-0.58911,-0.181,0.83923,-0.002479,-0.2575,-0.41058,-0.078996,0.71171,0.12506,0.074062,-0.51258,-0.3085,0.63515,0.074051,-0.35954,-0.64012,-0.078984,0.60967,0.22708,0.17606,-0.43606,-0.35954,0.30362,-0.33405,-0.43605,-0.46161,-0.027962,0.6352,-0.002443,0.023017,-0.46158,0.074051,0.58414,0.27814,-0.30856,-0.76764,0.023023,0.45664,-0.078984,-0.12999,-0.43604,-0.15548,0.55866,-0.002448,-0.35958,-0.6146,0.023035,0.66067,0.48214,0.22712,-0.48706,-0.43606,0.45661,-0.13001,-0.23203,-0.71663,-0.13001,0.63518,0.3291,-0.002467,-0.53806,-0.18101,0.55867,0.2016,-0.4871,-0.81866,-0.002479,0.83924,0.20161,0.15057,-0.46156,-0.35957,0.38011,-0.10452,-0.38504,-0.64011,0.023029,0.94124,0.27811,-0.10449,-0.51257,-0.283,0.45662,-0.30852,-0.35955,-0.64012,0.12508,1.0178,0.17608,0.023017,-0.76764,-0.51257,0.53316,0.074044,-0.15551,-0.64012,-0.33405,0.71175,0.3546,0.074081,-0.81866,-0.2575,0.83924,0.074075,-0.46161,-1.0482,-0.10452,0.91573,0.27812,-0.002467,-0.58908,-0.46156,0.45664,0.023017,-0.23201,-0.43606,-0.181,0.6607,0.074038,0.048543,-0.61458,-0.15551,0.66065,-0.232,-0.232,-0.71663,-0.18099,0.78821,0.35462,0.023047,-0.51259,-0.41053,0.58417,0.17609,-0.35956,-0.64012,-0.30856,0.7372,0.2781,-0.002472,-0.51252,-0.30854,0.60965,-0.13001,-0.58907,-0.71662,-0.078984,0.76267,0.32913,0.2271,-0.51257,-0.28302,0.7372,0.15056,-0.28303,-0.86969,-0.25751,0.81369,0.074062,-0.078977,-0.64011,-0.33407,0.68619,0.17608,-0.30853,-0.79313,-0.18103,0.91575,0.35464,-0.027969,-0.84411,-0.53807,0.76268,0.17604,-0.33403,-0.71661,-0.13001,0.96674,0.12507,0.074051,-0.69113,-0.41059,0.63516,0.074093,-0.12999,-0.6656,-0.027962,0.66069,0.32909,-0.15552,-0.94619,-0.5891,1.1708,0.25261,-0.181,-0.84417,-0.181,1.0433,-0.13001,0.12507,-0.76763,-0.23198,0.86471,0.074069,-0.35956,-1.0227,-0.23203,0.81371,0.38013,0.12508,-0.53806,-0.48707,0.6352,0.15054,-0.283,-1.0992,-0.20652,1.4768,0.30364,-0.10447,-0.86964,-0.46159,0.71171,-0.028005,-0.25752,-0.66562,-0.30852,0.94123,0.25259,0.17606,-0.66557,-0.48708,0.7117,0.20158,-0.2065,-1.0482,-0.38507,0.76269,0.45666,0.27812,-0.6656,-0.33401,0.96677,0.048536,-0.41058,-0.84418,-0.28305,0.94125,0.3546,-0.12999,-0.64012,-0.51256,0.68617,-0.02795,-0.25751,-0.79313,-0.20651,1.0433,0.40563,0.099564,-0.89516,-0.46159,0.86474,0.15057,-0.35955,-0.84417,-0.23203,0.99227,0.2271,0.15056,-0.6911,-0.35956,0.32907,0.17606,-0.12999,-0.66561,-0.33404,0.94127,0.38011,0.074087,-0.79314,-0.79315,0.8137,0.38016,0.15057,-0.89518,-0.28305,0.78821,0.30362,0.12507,-0.7166,-0.48711,0.60967,0.023054,-0.15551,-0.66563,-0.30853,1.0178,0.38012,0.15059,-0.86967,-0.53812,0.81373,0.15057,-0.35951,-1.0227,-0.13,1.0688,0.45663,0.02301,-0.76764,-0.56358,1.0688,0.50764,-0.48708,-1.0227,-0.25752,0.91574,0.12507,-0.15554,-0.97169,-0.33405,1.0433,0.55869,-0.12999,-0.64011,-0.33406,0.99227,0.3291,-0.181,-0.46157,-0.48706,0.73718,-0.12999,-0.43607,-0.86967,-0.33404,1.0178,0.50767,0.099577,-0.64007,-0.46159,0.8137,0.17607,-0.181,-0.89517,-0.23202,0.99224,0.43117,0.074033,-0.56356,-0.181,0.86473,0.074051,-0.64015,-1.0992,0.074038,1.2984,0.22705,-0.1555,-0.66563,-0.23199,0.94125,0.074062,-0.38506,-0.89515,-0.25756,0.96675,0.7117,0.25262,-0.66562,-0.43609,0.73722,0.12504,-0.25753,-0.79315,-0.25753,1.2218,0.22707,0.12507,-0.58909,-0.48708,0.81371,-0.18098,-0.46153,-0.69113,-0.1045,1.1963,0.38012,0.20158,-0.69113,-0.18098,0.81372,0.048549,-0.53805,-0.99721,-0.25752,0.86471,0.17607,0.38013,-0.64009,-0.30854,0.30363,0.35462,-0.15551,-0.71665,-0.30855,1.4514,0.48217,0.074062,-0.94617,-0.43607,0.48212,0.17607,-0.33402,-0.5891,-0.053451,1.2728,0.2526,0.12505,-0.69111,-0.35956,0.60968,0.17606,-0.35956,-0.89521,-0.053464,1.0433,0.40565,0.12504,-0.64009,-0.33403,0.76272,0.15058,-0.18099,-0.76765,0.099534,0.99227,0.35462,0.023041,-0.74211,-0.35957,0.55867,0.023023,-0.20647,-0.71664,-0.25754,0.8137,0.60971,0.38014,-0.33404,-0.30854,0.6862,0.048536,-0.25753,-0.99723,-0.48705,0.86472,0.68622,0.50765,-0.51255,-0.12999,0.66067,-0.027987,-0.61463,-0.79315,-0.027987,1.0178,0.20163,0.2271,-0.56362,-0.23203,0.53317,0.35464,-0.25754,-0.74211,-0.13001,0.86472,0.40563,0.40561,-0.64007,-0.25756,0.60968,0.22708,-0.25751,-0.86968,-0.23202,0.96674,0.53319,0.20158,-0.74214,-0.51261,0.68621,0.3291,0.099577,-0.79314,-0.13001,1.0688,0.48214,0.023041,-0.46157,-0.41055,0.55866,0.12507,-0.18099,-0.71662,-0.10448,1.1198,0.40561,0.22709,-0.61462,-0.38506,0.68619,0.17606,-0.28303,-0.69112,0.023023,1.0688,0.48214,0.099588,-0.46157,-0.33404,0.60966,-0.053446,-0.51255,-0.61462,-0.053519,0.94126,0.22707,-0.078966,-0.64011,-0.20648,0.91571,0.12508,-0.64012,-0.71662,0.023047,1.1963,0.38011,0.074057,-0.71665,-0.23197,1.0943,0.43115,-0.56361,-0.84417,-0.38508,0.81373,0.22708,-0.053451,-0.30854,-0.18098,0.7882,0.099583,-0.30853,-0.79315,-0.079021,0.60968,0.22708,0.2781,-0.43604,-0.20648,0.89021,0.048573,-0.15553,-0.56362,-0.15548,0.73721,0.38012,0.27811,-0.64012,-0.38506,0.50763,0.22709,-0.20649,-0.5381,-0.23201,0.91575,0.73723,0.30361,-0.30852,-0.46157,0.48214,-0.10447,-0.38508,-0.61462,-0.23202,0.71168,0.48214,0.20158,-0.28303,-0.2065,0.43117,0.25259,-0.35955,-0.61465,-0.027962,0.78821,0.53317,0.27814,-0.20649,-0.48706,0.48213,0.20158,-0.41053,-0.71662,-0.079021,0.73717,0.40564,0.40563,-0.18098,-0.35956,0.15058,0.12505,-0.33401,-0.15549,0.023023,0.91571,0.27809,0.27812,-0.48706,-0.41054,0.40562,0.20156,-0.30852,-0.56361,-0.181,0.7372,0.50762,0.27808,-0.61458,-0.33402,0.6607,0.32912,-0.2575,-0.58912,-0.2065,0.58416,0.55866,0.17607,-0.53804,-0.30854,0.55862,0.15057,-0.46155,-0.5636,-0.25754,0.71169,0.63518,0.22711,-0.33404,-0.33403,0.58419,0.17607,-0.18098,-0.56361,-0.43607,0.45661,0.35462,0.17609,-0.28304,-0.23196,0.4056,0.3291,-0.28303,-0.41056,0.15059,0.71171,0.32912,0.023017,-0.43608,-0.38507,0.38012,0.32911,-0.33403,-0.5891,-0.38505,0.68618,0.45666,0.12507,-0.33403,-0.30853,0.50765,1.1962,-0.58903,-0.8696,-0.43607,0.60967,0.40562,0.35462,-0.2065,-0.30853,0.17606,0.099564,0.074038,-0.46154,-0.23202,0.30357,0.63519,0.15057,-0.41057,-0.56361,0.17607,0.35461,-0.12998,-0.078972,-0.078959,0.55867,0.48214,-0.002467,-0.41058,-0.58911,0.35464,0.50765,-0.10448,-0.48711,-0.28302,0.58414,0.20158,0.17609,-0.10449,-0.2065,-0.002503,0.15057,-0.23202,-0.53809,-0.35955,0.50765,0.89026,0.43115,-0.027956,-0.51262,-0.10449,0.22705,-0.28303,-0.43607,-0.48709,0.58414,0.53317,0.35464,-0.002461,-0.28299,0.2271,-0.027987,-0.46159,-0.33404,-0.10447,0.55865,0.7372,0.22708,-0.23201,-0.56359,0.048531,0.2526,-0.25754,-0.64012,-0.43607,0.45662,0.78825,0.2781,0.02301,-0.51256,0.023029,0.2526,-0.15548,-0.28305,-0.10449,0.43113,0.40564,-0.027944,-0.13001,-0.18104,0.20156,0.45663,-0.30852,-0.43606,-0.28302,0.27809,0.43115,0.25256,-0.002461,-0.53808,-0.0535,0.32913,-0.181,-0.53806,-0.38506,0.048531,0.48213,0.40563,0.09957,-0.15548,0.15057,0.40563,-0.10447,-0.43609,-0.43606,0.25259,0.40561,0.20158,-0.23201,-0.58908,-0.078996,0.27809,-0.053488,-0.18098,-0.25751,0.099546,0.63513,0.3291,-0.20649,-0.58908,0.17608,0.3291,-0.053495,-0.48705,-0.23203,0.27812,0.55866,0.1506,-0.079002,-0.33404,-0.23204,0.32912,-0.079002,-0.25752,-0.30856,-0.002461,0.83923,0.32909,-0.12998,-0.64009,-0.078941,0.43107,-0.02798,-0.35956,-0.58911,-0.02798,0.81373,0.27811,0.023047,-1.0737,-0.33406,0.50765,0.45669,-0.33404,-0.35954,0.35456,0.27815,0.20156,-0.15548,-0.38505,-0.25749,0.48216,0.023029,-0.28302,-0.4361,0.099559,0.45662,0.023035,-0.10445,-0.71662,-0.0535,0.4311,-0.002461,-0.30853,-0.51256,0.023035,0.89024,0.45665,0.15059,-0.41056,-0.41057,0.48214,-0.12999,-0.28305,-0.35955,-0.30852,0.48213,-0.027987,0.27814,-0.25752,-0.15548,0.43112,-0.25753,-0.58911,-0.41058,0.17605,0.86473,0.20159,-0.232,-0.56358,-0.2065,0.35462,-0.002454,-0.2065,-0.33408,-0.10449,0.50765,0.048555,0.22705,-0.53809,-0.15548,0.48214,0.25255,-0.48704,-0.56358,-0.28303,0.71173,0.58413,-0.053451,-0.81867,-0.58909,0.63518,-0.13,-0.28303,-0.58913,0.074069,0.83922,0.27812,0.12509,-0.41054,-0.25754,0.2781,-0.13002,-0.51258,-0.28304,0.048567,0.6607,0.099552,-0.027987,-0.5126,-0.38505,0.43112,0.048567,-0.10449,-0.38505,-0.18101,0.68617,0.17607,0.074069,-0.35951,-0.35956,0.32912,-0.18103,-0.02798,-0.30856,-0.053439,0.48214,0.35461,0.074057,-0.6401,-0.48705,0.30358,0.074033,-0.25753,-0.18099,0.022998,0.22706,0.048555,0.32912,-0.3085,-0.35956,-0.053421,-0.25752,-0.002461,-0.232,0.048549,0.32909,0.30364,0.09954,-0.30852,-0.64014,0.25256,-0.181,-0.1045,-0.35954,0.048555,0.55867,0.30363,-0.053464,-0.5891,-0.28302,0.38014,0.023065,-0.23205,-0.43609,-0.12999,0.66067,0.20158,0.17607,-0.35954,-0.48705,0.45663,-0.002479,-0.35953,-0.30854,0.12505,0.50764,0.099546,0.023023,-0.30852,-0.46153,0.25262,-0.002461,-0.002485,-0.56359,-0.18103,0.73715,0.15056,0.20161,-0.20647,-0.5636,0.38012,0.09957,-0.10446,-0.35956,-0.53811,0.43111,0.12506,0.2016,-0.43607,-0.43605,0.40566,-0.002485,-0.25751,-0.18101,-0.002485,0.63519,0.25262,-0.027987,-0.38504,-0.33404,0.38014,0.023035,-0.48706,-0.43608,-0.20649,0.73718,-0.053476,0.09954,-0.56358,-0.33405,0.48215,0.3036,-0.10449,-0.33404,-0.38508,0.17606,0.15058,0.50771,-0.002454,-0.48707,0.27806,-0.23203,-0.66561,-0.71662,-0.053488,0.73719,0.45665,0.22712,-0.28301,-0.51259,0.2781,-0.12999,-0.10452,-0.53809,-0.15552,0.6352,0.17614,0.2016,-0.33409,-0.61462,0.35461,-0.33404,-0.35954,-0.58909,-0.002479,0.99227,0.40561,0.048531,-0.43606,-0.43606,0.30361,-0.002472,-0.33404,-0.33405,-0.1555,0.7117,0.68612,-0.41049,-0.28302,-0.33402,0.30359,-0.027962,-0.35956,-0.51257,0.074038,0.60968,0.12504,0.50769,-0.30852,-0.66564,-0.028005,-0.18102,-0.15548,-0.46158,0.048585,0.89024,0.22712,0.25259,-0.38503,-0.38505,0.32907,0.023041,-0.25754,-0.74212,-0.13001,0.6862,0.38012,0.20158,-0.53809,-0.15555,0.074087,-0.002454,-0.28302,-0.5126,-0.2575,0.78821,0.50765,0.12504,-0.43606,-0.38508,0.32912,0.099552,-0.33404,-0.61462,-0.25753,0.91577,0.35464,-0.10447,-0.61462,-0.30854,0.55867,0.074051,-0.25753,-0.56361,0.17608,0.68618,0.30362,-0.027969,-0.43604,-0.35957,0.53317,0.30361,-0.46156,-0.84417,-0.23203,0.60967,0.27809,0.12507,-0.35953,-0.002472,0.78821,-0.283,-0.13002,-0.97168,-0.027993,0.63518,0.40564,0.15057,-0.25752,-0.33404,0.58416,0.074051,-0.35955,-0.94616,-0.002497,1.0688,0.22708,-0.002448,-0.46157,-0.69112,0.27807,0.32915,-0.002448,-0.38505,-0.25753,0.6862,0.17606,0.30361,-0.25751,-0.20651,0.32911,0.30356,-0.7166,-0.69114,-0.25756,0.78818,0.30361,-0.002443,-0.15549,-0.15551,0.53316,0.27811,-0.10449,-0.56359,0.048512,0.50763,-0.027969,0.15057,-0.84411,-0.33405,0.50764,0.63514,-0.12998,-0.56361,-0.28302,0.91574,0.30359,-0.2575,-0.84416,-0.6146,0.6862,0.22712,0.099564,-0.58909,-0.12997,0.63518,0.48216,0.22707,-0.38505,-0.10449,0.20154,-0.078959,-0.15553,-0.48707,0.099546,0.55865,-0.027938,0.17607,-0.41054,-0.2065,0.43112,0.17607,-0.18103,-0.6656,0.15056,0.7627,0.2781,0.023059,-0.41054,-0.56359,0.32909,0.30355,-0.38503,-0.51258,0.32907,0.45669,0.35462,0.17606,-0.28302,-0.33404,0.63516,-0.12999,-0.18101,-0.38505,-0.25753,0.48211,0.12506,0.38015,-0.20647,-0.053458,0.66067,0.12504,-0.28304,-0.9207,-0.53812,0.83923,0.71175,0.55867,-0.43607,-0.38506,0.40559,-0.002454,-0.33406,-0.5126,-0.25748,0.83925,0.66065,0.099601,-0.58906,-0.28303,0.40563,0.22703,-0.35952,-0.33407,-0.30851,0.78824,0.43113,0.15059,-0.41057,-0.18103,0.40562,-0.10445,-0.002418,-0.53812,-0.25756,0.66065,0.55867,0.38015,-0.33403,-0.48708,0.30361,0.099552,-0.46155,-0.48707,0.2016,1.0943,0.17604,0.17609,-0.33405,-0.41057,0.17606,0.048536,-0.2065,-0.23202,0.048549,0.32917,0.4056,0.02301,-0.2065,-0.25753,0.43113,0.20156,-0.35952,-0.18101,-0.10447,0.83921,0.53312,-0.078953,-0.43605,-0.15549,0.30361,0.12504,-0.43607,-0.58908,-0.33405,0.55867,0.45666,0.6352,-0.46159,-0.46161
-0.28306,-0.35955,0.2016,0.68617,-0.33404,-0.25755,-0.33406,0.099595,0.40565,0.32909,0.43103,-0.92059,0.023096,0.17614,0.15051,0.63497,-0.86958,-0.69095,-0.56345,0.4056,0.43107,0.048487,0.30356,0.048543,0.25256,-0.48708,0.099534,-0.078959,-0.20647,0.50766,0.5076,-0.86969,-0.48708,0.48223,0.2526,-0.53812,-0.58914,-0.002423,0.73725,0.83926,0.12502,-0.20654,-0.20652,0.099601,-0.33405,-0.23209,-0.35956,0.86461,-0.71643,-0.18095,0.17603,0.35449,2.0886,-1.6855,-4.7968,0.58402,1.6806,-0.30847,0.53317,0.22715,0.8136,1.4766,1.7316,-2.6036,-1.7111,0.023072,1.1706,-0.71655,-0.6145,0.048549,0.76265,-0.25758,-0.18108,0.55861,-0.58902,-1.0481,0.176,0.71173,0.71177,0.15057,0.30356,-0.30859,-0.43605,0.4567,-0.027956,-0.28305,-0.43609,-0.25752,0.17612,0.048536,-0.027998,-0.079021,-0.10449,0.12514,0.074051,-0.18104,-0.25755,0.12505,0.27815,0.2016,1.4256,-0.15556,-1.7876,-0.28289,-0.20651,0.30351,-0.053525,0.45653,-0.053451,0.099552,0.63507,-0.2065,0.074093,0.9924,-0.66562,-0.25758,-1.4309,-0.94616,0.27815,0.50769,0.58416,-0.28305,0.074038,-0.002461,-0.35951,0.17602,-0.6401,0.15059,0.38014,0.15056,1.0942,-0.35954,-0.76754,0.099613,0.35456,-0.15556,-0.41061,-0.74202,-0.18089,1.0687,0.43101,-1.1757,-0.053549,-1.405,-0.28299,0.12502,0.12494,0.30358,0.81376,0.45664,0.53309,0.17604,-0.15552,-0.48694,-0.64007,-0.28303,-0.76766,-0.027969,0.45674,-0.002443,0.048463,-0.43612,-0.079008,0.76278,-0.35951,-0.13007,-1.1248,-0.61465,0.48225,0.45667,0.8137,0.074062,0.023059,0.25263,-0.002461,-0.10455,-0.58912,-0.23202,0.099619,0.099577,0.176,-0.51261,-0.30856,0.40561,0.27806,-0.8696,-0.028029,0.66056,0.048678,1.1707,0.30358,-1.0735,-0.66551,0.94114,-0.00251,0.35447,0.53298,-0.35946,0.25267,0.15059,-0.10452,-0.002436,-0.35956,-0.33396,-0.81866,0.09954,-0.13002,-0.23202,0.48224,-0.41058,0.60967,0.074008,0.048536,-0.027938,-0.33404,-0.079051,-0.4616,-0.1555,0.40569,0.48218,0.63514,-0.028054,-0.53809,-0.61441,-0.487,0.40554,0.073873,-0.69102,0.22719,-0.86952,1.4256,-1.3031,-0.23207,-2.629,-0.81852,0.45654,2.9556,-1.5837,0.25267,1.2217,0.53318,-0.07913,-0.41058,0.4567,0.66062,-1.5072,-1.6856,-0.4105,0.32921,-0.10454,0.048433,-0.46167,-0.30858,-0.35936,1.9614,-3.2667,-1.0483,0.22691,1.0432,0.45663,1.1452,1.4512,-0.38508,0.35451,0.89012,-0.18109,-1.8897,-0.61459,0.81375,0.48212,0.94111,0.15051,0.15056,1.0177,-0.58903,-0.81854,0.2016,-0.00251,-0.66551,-0.0535,0.20152,-0.079045,-0.079008,0.45668,0.099619,0.35461,-0.97175,-0.23201,0.22717,0.25265,0.25255,-0.48713,-0.69119,0.15064,-0.20652,0.43116,-0.61465,0.099515,-0.33397,0.6607,1.0942,0.15048,-1.0992,-0.10443,0.40558,1.2726,-0.51272,-1.5836,0.45662,1.6043,1.9869,0.22708,-2.9353,0.38017,0.60954,1.2471,-0.35978,0.30351,-0.25731,-0.30844,-0.15548,0.32896,-1.0737,-0.41046,0.58419,0.53311,-1.6347,-0.61455,0.1507,0.35462,0.83916,0.58408,-0.20653,-0.81863,-0.46155,0.30353,-0.41059,0.023059,0.38022,-0.35939,0.86467,-0.28311,-0.38511,-0.46148,-0.18095,0.227,-0.002558,0.30363,0.048585,1.1961,-1.2266,-0.89505,0.2015,0.9412,0.86466,-0.53803,0.2269,0.32894,0.86471,0.32916,0.91565,-0.15557,0.099491,1.3748,-0.99694,-0.79323,-0.6147,-0.56351,1.0178,0.38013,0.73716,-0.33412,-0.15556,0.43121,-0.02792,0.073965,-0.86967,-0.38508,-0.66547,0.86469,-0.18092,-0.41063,-0.10448,0.71173,-0.56361,-0.1556,-0.28306,0.023047,0.30369,0.1251,0.43111,-0.15553,-0.10452,0.09965,-0.23201,0.099454,-0.002546,-0.30854,0.63524,0.17609,0.68615,-1.9153,-1.0991,0.78819,0.3036,0.32908,-0.86973,-0.027962,1.1708,-0.078886,0.68605,-0.48714,-0.15549,0.38025,-0.33396,-0.25757,-0.8697,-0.2065,0.023163,0.023072,0.53307,-0.4871,-0.20653,-0.12988,1.2216,-0.41048,-0.58912,0.68606,-0.10429,-0.15542,0.58407,-0.13005,0.22702,0.27817,-0.05347,1.0431,-0.61466,-1.9152,-0.48692,0.58408,1.4512,-0.002528,-0.58901,0.074069,-2.7058,0.91551,0.27811,-0.10458,0.48215,0.78819,1.0177,0.27808,0.38013,0.22718,-0.74214,-0.13002,-0.74214,-0.48702,-0.002387,-0.18097,0.35456,-0.028018,-0.35962,0.40569,0.45667,0.76263,-0.69118,0.3035,0.22719,-0.2574,0.45661,-0.25759,-0.23208,0.96665,-0.12992,0.12499,-0.028103,-0.00251,1.0433,-1.5579,-0.28299,-0.2576,0.022931,1.0687,0.76264,0.43099,-0.66556,-0.69107,-0.18089,0.66066,0.66064,-0.66572,-0.43614,0.20167,0.30379,0.83912,-0.51251,-0.25754,-0.004307,0.22521,0.96671,0.048518,-0.15554,-0.35954,-0.64005,1.1197,-0.12998,-0.53807,-0.99716,-0.69108,1.6553,0.45663,0.4311,-0.43609,-0.48709,0.73729,0.074038,-0.002491,-0.38514,0.53302,1.7573,-2.17,-0.61448,0.099515,-0.30853,1.1452,0.60955,0.022956,-0.8442,0.074033,1.2473,0.30364,0.60969,-0.48702,-0.94617,-0.3341,-0.18098,0.074093,-0.30851,-0.027969,1.3239,0.48213,-0.25756,-0.89516,-0.20649,1.0433,0.48209,-0.64006,-0.76767,-0.23204,0.91575,0.43112,0.27808,-1.0482,-0.23198,1.0178,0.60966,-0.18102,-1.2777,-0.81846,1.0687,0.63512,-0.078879,-0.30852,-0.25761,0.25256,1.5532,-0.64002,-1.5581,-0.20653,0.60965,0.22709,0.86471,0.48218,-0.33399,0.8391,0.17603,-0.92051,-1.3033,-0.4871,1.0688,0.32908,0.25257,-0.15549,-0.2065,0.22706,0.43117,-0.002423,-0.64013,-0.33403,0.96676,0.35462,0.3546,-0.74212,-0.58911,0.3291,0.35462,0.2526,-0.64004,-0.12999,0.83923,-0.23195,0.074057,-0.58911,0.68606,0.78821,0.55862,-0.53807,-1.0992,0.12498,0.32912,-0.12989,0.2526,-0.18102,0.25253,0.9157,-0.10449,-0.35953,-0.41058,0.22715,0.50768,0.15055,0.023041,0.023103,-0.283,-0.028005,0.12505,0.38017,0.074087,-0.89523,-0.35966,0.48213,0.76277,-0.18095,0.20157,0.25257,-0.053525,-0.283,-0.48707,0.12504,0.023108,0.2526,-0.18101,0.32908,-2.0937,0.86469,-0.69099,-0.10448,-0.2321,0.8135,0.25267,0.22713,0.38006,0.27806,-0.38505,0.12518,-0.002423,-0.33403,-0.6656,0.176,-0.027895,0.83919,0.1251,-0.05347,-0.33406,0.22706,0.35464,-0.28303,-0.58908,-0.10453,0.63517,0.55862,0.40565,-0.38504,-0.53807,-0.02795,0.22711,-0.30856,-0.6146,-0.89517,0.9413,0.53314,0.27809,0.22711,-0.38508,0.023035,0.40563,-0.078941,-0.43608,-0.43604,0.17606,0.7117,0.78814,-1.2776,-0.51257,0.48214,0.58415,-0.46159,-0.79314,-0.18106,0.27812,1.0177,0.68613,-1.4816,-0.41054,0.5841,0.50762,0.45651,-0.92057,-0.002423,0.40566,0.76268,0.38014,-0.35956,0.53298,0.40553,-1.1245,-0.10437,-0.38506,-0.74223,0.2015,0.5331,0.53314,0.12509,0.25265,0.76277,0.76277,-0.053476,-0.71663,-0.97174,0.022986,0.27813,0.27811,-0.181,-0.38506,-0.20651,0.86463,-0.38503,0.022998,-0.99708,0.074149,1.2472,-0.23193,0.22706,-0.33404,0.35458,0.6861,-0.61458,-0.74208,0.023005,0.43109,0.53312,-0.002503,-0.053451,0.048531,-0.12993,0.60966,-0.2065,-0.69116,-0.94622,0.099564,1.1708,0.5332,0.22711,-0.48708,-0.33404,0.35461,-0.15547,-0.13005,-0.69108,0.5586,1.0942,-0.20645,-0.41053,-0.079008,0.15056,0.55863,-0.5891,-0.53807,-0.25755,0.17613,-1.1499,0.55859,0.45658,-0.053446,0.20156,0.50761,-0.053488,-0.53807,-0.10448,0.27808,0.25264,0.81371,-0.61453,-0.86969,-0.58916,0.40562,0.22709,-0.38506,-0.12998,0.68619,0.40565,0.6097,-0.027974,-0.8187,-0.23201,0.50764,-0.10449,-0.15554,-0.51255,0.86464,0.53315,-0.43604,-0.25752,-0.12996,0.38005,0.73716,-0.69101,-0.4615,0.048445,-0.28302,0.73714,1.0431,0.15049,-2.0171,0.15061,0.91567,-0.10452,-0.002552,-0.4106,0.15054,0.89022,0.17606,0.35467,-0.53809,-0.18101,-0.10449,-1.1247,-0.4871,-0.43601,0.58413,0.40562,0.12505,0.40568,-0.283,0.22705,0.50763,-0.10454,-0.69107,-0.35953,0.25254,0.66064,-0.078977,-0.053488,-0.41055,-0.38503,0.68609,-0.30846,-0.002485,-0.46154,0.45661,0.4057,1.0176,-0.56351,-0.51258,-0.66558,0.25262,0.32902,-0.61457,0.17594,0.91577,0.76267,-0.86965,0.074069,-0.20653,-0.69115,-0.13002,0.12505,0.048549,-0.002448,0.45667,0.9413,0.45666,-0.30852,-0.9462,-0.89518,0.58415,-0.002485,-0.053482,-0.43606,-0.12996,0.32905,0.2016,0.074057,-0.28299,-0.23204,0.78819,-0.25752,-0.5381,-0.3851,-0.53798,0.99228,0.1251,0.60962,-0.79312,-0.15551,0.43112,-0.35956,0.048536,0.17604,-0.35953,-0.053451,0.48216,0.22711,-0.41063,-0.89519,0.43111,0.35466,0.12503,-0.43608,-0.30859,0.96677,0.71171,0.55874,-1.1248,-0.86965,0.63518,0.074062,-0.10455,-0.66556,-0.13002,0.60972,0.3036,-0.20651,-0.69112,-0.51258,1.0687,0.22704,-0.92059,-1.0226,-0.05347,0.94124,0.58407,-0.18097,-0.00251,-0.079033,1.5277,-1.6091,-0.078959,-0.53806,0.048518,0.99223,0.40563,-0.33409,-0.79318,-0.10446,0.6607,-0.3596,-0.66561,-0.46155,0.15059,0.78823,0.50766,0.50769,-0.56359,-0.64014,0.58417,-0.027944,-0.35956,-0.66564,-0.20655,0.94121,-0.20642,0.15056,-0.028054,-0.58906,0.35466,0.15052,0.50757,-0.86957,-0.41061,0.7117,0.22714,0.20157,-0.18106,-0.002485,0.81373,-0.33396,-0.94617,-0.28305,-0.20655,1.0178,0.53312,-0.15553,-0.97169,-0.61459,0.38012,0.25256,-0.20649,-0.20648,-0.12996,0.78822,0.2526,0.20161,-1.0482,-0.66562,0.55867,0.048525,-0.181,-0.69114,-0.46156,0.89022,0.40563,0.12507,-0.64009,-0.48705,0.73719,0.048567,-0.28303,-0.35959,-0.69113,1.0943,0.53314,0.86473,-1.5072,-0.69112,0.68614,0.12509,0.074044,-1.0482,-0.053513,0.66068,0.40562,0.45667,-0.8696,-0.92068,0.4566,-0.23202,-0.20651,-0.41057,0.27808,0.17622,0.40563,0.048561,-0.56358,-0.28302,0.73713,0.83909,-0.99711,-0.28308,-0.84404,0.68624,0.25252,-0.027969,-0.00257,-1.0736,1.0177,-0.18095,0.023047,-0.58911,0.023059,1.0178,0.12508,0.38013,-0.56356,-0.69111,0.68615,-0.10447,-0.41054,-1.0227,-0.35959,1.2728,0.58416,0.12507,-0.28302,-0.43606,0.27803,-0.30855,-0.25754,-0.81865,-0.25753,1.4259,0.78826,0.32915,-0.71663,-0.61459,0.89021,-0.10449,-0.1045,-1.0482,-0.71668,0.78821,0.43111,0.27811,-0.69116,-0.7676,0.73722,0.15053,-0.18097,-0.53809,0.023005,1.2983,-0.002443,0.27809,-0.92064,-0.30857,0.83922,-0.027938,-0.13003,-0.43609,-0.23207,1.3238,0.12512,0.43117,-0.33401,-0.86972,0.20156,0.53319,-0.38506,-1.0227,-0.4616,0.63517,0.30358,0.25261,-0.20648,-0.053433,0.83922,0.15056,-0.15549,-0.89519,-0.23204,0.96672,0.074069,-0.1555,-0.33407,-0.23201,0.22715,-0.053458,0.35453,-0.9972,0.22701,1.3493,0.35467,-0.078898,-0.79313,-0.28305,0.86471,0.22712,0.073971,-1.1757,-0.41064,1.2473,0.50765,0.023041,-0.76764,-0.41058,1.2983,0.68621,-0.94614,-1.3287,-0.2065,0.99222,0.53315,0.40559,-0.94611,-0.43607,0.66065,0.45663,0.25262,-1.0737,-0.69116,0.86472,0.66072,0.30364,-0.66558,-0.23205,0.60969,0.71164,-0.13002,-1.6603,-0.74209,1.0943,0.73715,0.074062,-0.71665,0.89005,0.12508,-0.18092,-0.41054,-0.79318,0.3546,0.96676,0.50765,-0.28303,-0.69113,-0.23201,0.94128,0.099559,-0.15549,-0.89516,-0.66566,0.7117,0.81374,0.20158,-0.69112,-0.46159,0.91578,0.50765,-0.61463,-1.0227,-0.13,0.99229,0.71166,0.09957,-0.6401,-0.53806,1.1962,-0.18097,-0.71657,-1.1757,0.022998,0.96676,0.38011,0.4566,-0.38506,-0.053495,0.38017,-0.027962,-0.15553,-0.76761,-0.1045,1.0178,0.12502,0.32914,-0.48706,-0.30856,0.76268,-1.1756,-0.28309,-0.66561,0.48216,1.1453,0.30357,0.023035,-0.69114,-0.33402,1.2218,0.023041,-0.48711,-0.86964,-0.13001,1.1198,0.5077,0.27808,-0.92072,-0.69116,0.94129,0.83921,-0.2575,-0.99716,-0.61454,0.7627,0.53308,0.40561,0.12501,-0.58906,0.73717,0.15057,-0.15553,-0.79314,-0.58916,0.89027,0.9413,-0.053458,-0.97171,-0.25748,0.96679,0.20156,-0.30855,-0.38504,0.099608,0.8902,-0.15553,0.023023,-0.41056,-0.18098,0.68617,0.32912,-0.28301,-0.71665,0.023054,1.4513,-0.078953,0.22706,-0.43609,-0.38506,-0.002387,0.35459,-0.13002,-0.35962,-0.027998,0.45669,0.63516,0.48215,-0.33401,-0.51257,0.50766,0.43115,-0.002448,-0.8187,-0.079081,0.63514,-0.027858,-0.13003,-0.61462,-0.07899,1.0688,0.76274,-0.15548,-0.56361,0.17608,1.3239,0.12504,-1.0483,-0.74212,-0.5381,0.48214,0.45667,0.099583,-0.43604,-0.283,1.1963,0.55863,-0.027974,-0.58913,-0.20654,0.30366,0.25264,-0.20653,-0.20649,-0.35957,0.50756,0.048573,1.4767,-1.9406,-0.58904,0.63512,0.4311,-0.9716,-0.5381,0.17601,0.91568,0.38011,0.32913,-0.10441,-0.053433,0.50764,0.40563,-0.58919,-1.7112,-0.84413,0.55864,0.35457,0.3036,0.09957,0.68625,0.81373,0.20158,-0.4871,-1.1503,-0.20654,0.73717,0.40564,0.17611,0.048567,-0.23198,0.43116,-0.10453,-0.05347,-0.38507,-0.2575,0.71164,0.099521,-0.46147,0.30353,-0.002472,0.048592,0.2526,-0.20655,-0.33404,-0.20651,0.99218,0.023059,0.3036,-0.15546,-0.283,0.25262,0.40563,-0.4616,-0.64012,-0.33405,0.60967,0.60967,0.30361,-0.35953,-0.078977,0.78826,0.022998,-1.2013,-0.76766,0.15059,1.1963,0.68621,0.17608,-0.30855,-0.30852,0.43111,-0.10446,-0.15551,-0.66564,-0.28306,0.55867,0.48213,0.20159,-0.20652,-0.38502,0.22707,0.32912,-0.2065,-0.38505,-0.053464,0.71171,0.48218,0.22705,-0.23201,-0.30855,-0.12994,0.25259,-0.35956,-0.46156,-0.028005,0.6862,0.89017,-0.20649,-0.43609,-0.33402,0.48214,0.50766,-0.46157,-0.6146,-0.30857,1.0432,1.0177,-0.84398,0.32906,0.12503,-0.30844,-0.35958,-0.13002,-0.053464,-0.13003,0.25259,0.73717,0.17608,-0.027969,-0.18098,-0.13,0.40565,-0.23201,-0.43606,-0.23201,0.55863,0.15057,-0.027998,-0.20648,-0.23203,0.048549,0.60966,0.15054,-1.1246,-0.41053,0.53308,0.30363,-0.76755,-0.002448,-0.53802,0.25262,0.60961,0.048482,-0.30853,-0.30856,0.55869,0.53317,0.1506,-0.46157,-0.46157,0.2271,-0.079008,-0.232,-0.66565,-0.23201,0.45662,0.58416,0.20158,-0.33402,-0.41052,0.3546,0.50765,-0.28305,-0.76769,-0.48708,0.86478,0.91577,0.048531,-0.41058,-0.18098,0.22707,0.35461,-0.027987,-0.46158,-0.41054,0.074062,0.20155,0.12504,-0.12998,0.12506,-0.33394,0.074093,-0.18103,-0.6911,0.048512,0.30361,0.71166,0.22705,0.074033,-0.078984,0.099601,0.45664,-0.74207,-0.46163,-0.69115,0.17606,0.60966,0.68617,-0.10443,-0.66556,0.023035,0.6352,-0.002467,-0.28304,-0.35957,0.30356,0.58417,-0.15551,-0.23201,-0.28301,-0.027944,0.78821,0.25253,-1.0737,-0.81866,0.40561,0.86475,-0.15554,-0.41057,-0.25754,0.55872,0.53315,-0.23201,-0.5381,-0.51261,0.20157,0.89027,-0.002412,0.25252,-0.97158,-0.48703,0.12505,0.17601,-0.10456,-0.35958,0.17603,0.48219,-0.002399,0.5331,-0.078996,-0.053451,0.55862,0.022998,-0.18103,-0.58913,0.20159,0.83924,0.15061,-0.078966,-0.84415,-0.283,0.58417,-0.28303,-0.79318,-0.35952,0.40561,0.40557,0.6352,0.20161,-0.10444,-0.56364,0.38011,-0.15553,-0.35952,-0.46161,-0.13001,0.55866,0.3036,-0.027956,-0.51258,-0.38503,0.27813,-0.002467,-0.20652,-0.5381,0.099552,0.83922,0.27812,0.023054,-0.64011,-0.053495,0.27812,-0.10448,-0.28305,-0.51258,0.20157,0.71167,0.2526,-0.20653,-1.0992,-0.38505,1.0943,0.30361,-0.74216,-0.89523,0.15059,1.0178,0.5842,0.2271,-0.71663,-0.69115,0.30357,-0.12997,-0.232,-0.46157,-0.28308,0.48219,0.48211,0.048536,-0.46156,-0.48703,0.91567,-0.15545,-0.30855,-0.10455,-0.15549,0.71171,0.074062,0.25255,-1.0991,-0.053544,0.60968,0.32906,-1.2266,-0.18105,0.15054,0.8137,0.02298,0.20159,-0.35953,-0.94619,-0.10453,0.38018,0.20161,-0.41054,-0.33405,0.7117,0.53318,0.048549,-0.79316,-0.5381,0.78823,-0.13001,-0.69116,-0.66564,0.048518,0.94127,0.30362,0.023047,-0.53807,-0.25753,0.60968,-0.10449,-0.33409,-0.66561,-0.2065,0.60968,0.38014,-0.12999,-0.6146,-0.10453,0.3547,-0.078953,-0.28307,-0.84417,-0.02798,0.83927,0.50763,-0.13,-0.71662,-0.56356,0.9157,-0.81857,-0.4616,-0.69112,0.53317,0.99226,-0.18103,-0.13002,-0.43603,-0.35955,0.6352,0.048531,-0.51251,-0.61467,0.17607,0.89024,0.048561,0.45657,-0.81865,-0.64009,0.66068,0.55857,-1.0736,-0.81862,-1.1246,1.1708,0.30362,0.55859,-0.41059,-0.48703,0.30358,-0.10448,0.023029,-0.33402,-0.18099,0.27806,0.5587,-0.1045,-1.2523,-0.92069,1.0178,0.53318,-0.027938,-0.53816,-0.43601,1.0433,0.45662,-0.05347,-0.58911,-0.58911,0.60969,0.12502,-0.38502,-0.69113,-0.41057,0.83923,0.45661,0.20157,-0.92065,-0.64008,0.7117,-0.10447,-0.20653,-0.79314,-0.027993,0.60971,0.73718,0.32907,-1.2522,-0.51257,0.58414,0.27809,0.048518,-0.97167,-0.23202,1.0433,0.32912,-0.079021,-0.58909,-0.41057,0.58417,-0.28306,-0.41057,-0.51255,-0.35954,0.91574,0.66072,0.43116,-0.48705,-0.28301,0.3801,-0.25754,-0.18102,-0.86969,-0.15551,0.71169,0.099546,0.12504,-0.69113,-0.69109,0.81371,0.099546,-0.10448,-0.81865,-0.15549,0.94128,0.40565,0.09957,-0.69111,-0.66558,0.50768,0.074044,-0.38506,-0.4106,-0.002461,1.0688,0.099546,-0.02795,-0.64011,-0.66565,0.27808,0.2526,-0.23202,-0.6401,-0.13,0.91577,0.12505,0.20159,-0.30851,-0.053446,0.50763,-0.56365,-0.74216,-0.64011,-0.027993,1.1963,0.45666,0.25261,-0.69111,-0.58911,0.76271,0.2271,-0.46159,-0.66564,-0.28302,0.96679,0.43115,-0.002423,-0.3596,-0.92065,0.81368,-0.078935,-0.028005,-0.48711,-0.38506,0.86472,0.30364,0.43109,-0.84412,-0.41057,0.78821,0.43113,-0.053495,-1.3798,-0.76771,0.81371,0.9158,-0.13001,-0.74213,-0.027907,1.1963,0.3291,-0.38505,-0.9972,-0.30856,0.78821,0.15055,-0.10451,-0.53806,-0.58913,0.32907,0.27813,0.023059,-0.76763,0.048543,1.0178,0.43113,0.22708,-0.79312,-0.33404,0.71168,-0.027944,-0.18101,-0.51262,-0.46157,0.22718,0.32909,0.30356,-0.5126,-0.23207,1.0943,-0.66545,-0.64013,-0.86969,0.32913,1.4003,-0.079008,-0.30858,-0.84414,-0.15546,1.1453,0.71172,-0.28302,-0.61462,-0.38503,1.0688,0.15054,-0.079008,-0.79313,-0.23203,0.63518,0.17604,-0.2575,-0.89518,-0.1555,0.83922,0.32912,0.048543,-0.64011,-0.12998,1.0178,0.40563,-0.41055,-0.84414,-0.2065,0.99225,0.27809,0.2271,-0.46158,-0.51255,0.7117,0.20158,-0.38505,-0.89518,0.07402,1.1708,-0.053488,-0.027969,-0.38502,-0.18099,0.45669,0.0485,-0.18098,-0.69114,-0.002461,1.0433,0.27809,0.17608,-0.58908,-0.20649,0.96676,-0.002485,-0.46157,-1.0227,-0.23204,1.0433,0.32912,0.17607,-0.56355,-0.181,0.73721,0.20157,-0.283,-0.81868,-0.027974,1.1453,0.40562,0.22707,-0.92059,-0.13002,0.99222,0.12507,-0.74207,-0.74214,-0.027998,1.0432,0.30358,0.20157,-0.13001,-0.30852,0.048641,0.2526,0.27806,-0.92066,-0.30857,0.32908,0.58417,0.35461,-0.76764,-0.35957,0.81373,0.99233,-0.10449,-0.9972,-0.30856,1.0433,0.48215,0.27813,-0.43607,-0.46156,0.40561,0.17605,-0.33404,-0.76764,0.15049,0.48216,0.30363,0.25259,-0.48706,-0.18101,0.58415,0.15059,-0.18098,-0.56362,-0.25753,0.99225,0.50767,0.3291,-0.38505,-0.13002,0.45663,0.048518,-0.53807,-0.43604,-0.18098,0.81372,0.023035,0.048525,-0.61463,-0.078959,0.94128,0.35464,-0.002467,-0.5891,-0.15551,0.76272,-0.002472,-0.3086,-0.69113,-0.10447,0.58416,0.55868,0.15057,-1.0736,-0.1555,0.91571,0.50765,0.25259,-0.5381,-0.3595,1.2982,-0.56348,-0.64008,-0.84414,-0.30851,1.3748,0.02317,0.20156,-0.30861,-0.6911,0.20166,0.50765,0.27802,-1.0227,0.2016,0.71166,0.48217,0.17606,-0.35953,-0.23202,0.35464,0.27808,-0.61463,-0.71666,-0.15551,0.78824,0.48216,0.43117,-0.18101,-0.28303,0.25256,0.43114,-0.28304,-0.74213,-0.46161,0.60966,0.76272,0.15056,-0.33402,-0.25759,0.27815,0.60967,0.09954,-0.61464,-0.51262,0.45666,0.32913,0.17609,-0.10452,-0.07899,0.2526,0.38012,-0.23203,-0.76761,-0.15554,0.86477,0.38013,0.27806,-0.46156,-0.38502,0.48212,0.50764,-0.53809,-0.15553,0.12503,-0.33392,0.17609,0.53316,-0.38506,-0.18103,-0.002485,0.3546,-0.18099,0.074069,-0.078953,0.30359,0.32912,0.2526,-0.12999,-0.28305,0.12507,0.023029,-0.43606,-0.64011,-0.13001,0.7372,0.43113,0.023029,-0.078984,-0.30851,0.68612,0.048616,-0.64008,-0.64006,0.53307,0.17612,0.68616,0.15058,-0.18101,-0.53814,0.15054,0.45663,0.023065,-0.48706,-0.13,0.71173,1.0687,-0.43602,-0.38506,-0.25751,0.12505,0.27809,-0.002443,-0.43604,-0.41057,0.40563,0.68621,0.074051,-0.5126,-0.43609,0.25258,0.38014,-0.053476,-0.2575,-0.61464,0.074033,0.6607,0.68619,-0.20649,0.25249,-0.38495,0.38011,-0.41053,-0.30857,-0.18103,0.50762,0.68617,0.25256,-0.10449,-0.43602,0.30364,0.50761,-0.81868,-0.6656,-0.53809,0.63518,0.6862,0.22711,-0.12998,-0.12996,-0.13001,0.30357,-0.46157,-0.38506,-0.25753,0.55868,0.66069,0.63515,-0.13001,-0.53807,-0.51253,0.60968,-0.078959,-0.43609,-0.38507,0.30356,0.53317,0.27808,0.048561,-0.8696,-0.18098,0.3036,-0.28301,-0.283,-0.20656,0.53313,0.50766,0.27806,-0.53804,-0.25751,0.17611,0.63518,-0.74213,-0.92074,-0.79318,0.96679,0.76273,0.55867,-0.002443,-0.33402,-0.20651,0.17606,-0.13,-0.5126,-0.25753,0.35461,0.68619,0.074051,0.048555,-0.33404,-0.002521,-0.12994,0.43104,-0.30854,-0.69107,0.50761,0.15065,0.15057,0.15056,-0.1555,0.38008,-0.46148,-0.43605,-0.46162,0.074062,0.27812,0.76268,0.22708,-0.002454,-0.51258,-0.58916,0.048518,0.38016,0.20163,-0.23205,-0.283,0.12502,-0.078984,0.38014,-0.002418,0.048549,0.40564,-0.18101,-0.4871,-0.43607,-0.10449,0.58414,0.17606,-0.53807,-0.15551,-0.053451,0.60962,0.30358,-0.86965,-0.66562,0.30356,0.60968,-0.58897,-0.05347,-0.18103,-0.487,0.96672,0.38005,-0.25753,-1.0226,-0.48703,0.78824,0.35459,-0.13007,-0.56362,-0.20652,0.68617,-0.078966,-0.18099,-0.76765,-0.05347,1.1452,-0.38498,0.1506,-0.18098,-0.38505,0.32908,-0.30854,-0.23203,-0.64014,-0.18099,0.63518,0.40563,0.099564,-0.3085,-0.33405,0.35461,-0.027969,-0.25754,-0.41055,0.12507,0.50764,0.074051,0.12506,-0.64008,-0.002516,0.048604,-0.35952,0.30358,-0.28305,-0.71658,0.20156,-0.10454,-0.28304,-0.18097,0.12509,1.2728,0.43118,-0.23202,-1.1503,-0.23202,0.81372,0.074051,-0.002454,-0.56363,-0.23201,0.38017,-0.33402,-0.35957,-0.41058,-0.28303,0.9667,0.78814,0.30355,-1.1501,-0.18103,0.17612,0.20155,0.20153,-0.7676,-0.20653,0.7117,0.2781,-0.027956,-0.51256,-0.35955,0.66067,0.58417,-0.28301,-1.3798,-0.99726,1.1198,0.32912,0.27812,-0.20647,0.22714,0.53316,-0.25756,-0.79317,-0.35956,0.1506,0.63515,0.25262,-0.02798,-0.64011,-0.53809,0.38011,-0.078977,-0.30851,-0.20652,-0.078996,0.68616,0.22707,0.074038,-0.84414,-0.61458,1.0432,0.27806,-1.0991,-0.81864,0.15052,0.91576,0.25259,0.35459,-0.51256,-0.23203,0.8392,-0.84404,-0.46156,-0.71664,0.099564,0.89026,-0.20657,-0.20653,-0.028005,-0.81859,0.55865,0.43115,-0.12999,-0.48708,0.125,0.48218,0.22709,0.30359,-0.86961,-0.76762,0.76269,-0.12998,0.048476,-0.86967,-0.10449,0.63521,0.30361,0.023078,-0.053549,-0.97166,0.83922,0.32913,-0.23202,-0.89518,-0.64014,1.1963,0.58416,0.32911,-0.81859,-1.5582,1.1197,0.60961,-0.61455,-1.2521,0.17602,0.96679,0.35459,0.40561,-0.6911,-0.079002,0.83907,-1.5836,-1.2011,-0.86967,-0.002503,1.0943,0.76269,0.32913,-0.4871,-0.51257,0.71167,-0.053458,-0.30854,-0.79312,0.17609,0.55864,0.099564,-0.23203,-0.99722,-0.64011,1.0688,0.1761,-0.15548,-0.58909,-0.10451,0.91575,0.45664,0.27812,-0.61461,-0.81866,0.71168,-0.10449,-0.41057,-0.94617,0.023065,1.3238,-0.15546,-0.15553,-0.56361,-0.28301,1.0943,0.048598,-0.1555,-0.48708,-0.25753,1.2983,-0.2575,0.023023,-0.79316,-0.23205,0.7627,0.38012,-0.181,-0.71665,-0.51248,1.0178,0.32904,-0.10455,-0.38505,-0.79311,1.0177,0.30359,-0.2065,-0.89525,-0.18101,1.0432,0.22711,0.40564,-0.027944,-0.58903,0.2016,0.048518,-0.10452,-1.0992,0.023023,1.1708,0.43116,0.15056,-0.76761,-1.4563,0.91571,0.55862,-0.35956,-0.76763,-0.56362,0.7117,0.55867,0.43115,-0.23202,-0.5126,0.43111,0.43116,-0.053476,-1.0482,-0.23204,0.86473,0.17609,0.30359,-0.64006,-0.38505,0.76272,0.38008,-0.28303,-1.2522,-0.053482,0.96675,0.50759,0.099564,-0.79314,-0.64005,0.30368,0.20157,-0.10452,-0.61467,0.048531,0.9412,0.48213,0.2526,-0.61458,-0.28301,0.78824,0.48213,-0.86964,-1.3797,-0.23201,1.3493,0.43112,-0.078959,-0.64011,-0.30852,0.91574,0.15056,-0.15553,-0.64014,-0.13,0.96674,-0.027944,0.099521,-0.61458,-0.33402,1.1198,0.02309,-0.10452,-0.9462,-0.10453,1.3493,0.45661,-0.58896,-0.6911,-0.28298,0.94125,0.68616,-0.3596,-1.3033,-0.38509,1.5279,1.0178,-0.20652,-1.7114,-0.053439,1.4004,0.35465,-0.35954,-0.58911,-0.33404,0.94123,0.27811,-0.078984,-0.94616,-0.15552,0.78821,0.22706,-0.38504,-0.61465,0.12501,0.48224,-0.56342,0.35459,-0.30855,-0.38503,1.0177,-0.18097,0.17603,-1.3287,-0.15551,0.6097,0.32906,-0.05347,-0.46156,-0.35953,0.78821,0.20159,0.099491,-1.0737,-0.12998,0.96677,-0.079014,-0.13001,-0.64011,0.099588,1.0178,0.50767,-0.078972,-1.2778,-0.35957,1.3493,0.55869,-0.13002,-0.61461,-0.2065,0.68619,0.27812,-0.20652,-0.84415,-0.23203,0.78823,0.40561,0.074044,-0.6146,-0.38505,0.8902,0.25257,-0.43601,-0.053568,-0.078959,0.6607,0.55862,0.38011,-0.33407,-1.1501,0.71167,0.22709,-0.053488,-0.56367,0.30352,0.27825,0.58419,0.15057,-0.43607,-0.43608,0.68617,-0.15547,-0.35956,-0.53811,0.099559,0.78819,0.71171,0.15059,-0.99721,-0.64012,0.81375,0.83924,-0.12998,-0.66561,-0.20652,0.7627,0.3546,0.099546,-0.46156,-0.28304,0.50766,0.50763,-0.76761,-0.89513,0.15059,0.94124,0.53315,-0.20648,-0.64008,-0.30856,0.50763,-0.02792,-0.15548,-0.53809,0.09954,0.99224,0.38013,-0.15553,-0.33399,-0.23199,0.048525,-0.002503,-0.30854,-0.66564,0.099564,0.81371,0.58419,0.12507,0.25263,-0.10447,0.38008,-0.53815,-0.58911,-0.46153,-0.078996,0.86472,0.43113,0.074062,-0.74206,-0.079014,0.68618,0.43111,-0.74208,-0.35959,0.048487,0.96676,0.55865,-0.30848,-0.1555,-0.13003,0.30361,0.58409,-0.66555,-0.94614,-0.61456,1.1197,0.48213,0.48216,-0.18097,-0.23204,-0.25752,-0.002521,-0.1555,-0.43604,0.17609,1.1198,0.7117,0.3546,-0.51256,-0.25753,0.25255,-0.15549,-0.33404,-0.51257,-0.30852,0.63514,0.53315,0.0741,-0.13001,-0.20653,0.27811,0.48215,-0.078984,-0.43604,-0.436,0.58413,0.45662,0.023059,-0.58904,-0.13004,-0.25745,0.25259,-0.23202,-0.38507,-0.10455,0.53321,0.3546,0.38013,-0.28303,-0.84419,-0.13001,0.66072,-0.002448,-0.002443,0.86478,0.32912,-0.23208,-0.13003,-0.1045,-0.46156,0.17607,0.25257,-0.15549,-0.18103,-0.46153,0.73712,0.20159,0.78819,-0.25749,-0.69105,-0.15544,1.2982,-0.23199,-1.1756,-0.079026,0.68613,0.60962,0.12508,0.099461,-0.43602,0.17604,0.27815,-0.10447,-0.56355,-0.53808,0.2781,0.3801,0.17609,-0.20654,-0.23202,0.30362,0.55867,-0.078966,-0.18101,-0.51262,-0.00251,0.53317,0.30361,-0.43607,-0.30853,0.35463,0.68621,-0.20651,-0.25751,-0.20652,0.30361,0.25262,0.048506,-0.33401,-0.10452,-0.002461,0.12502,-0.48707,-0.41056,-0.12999,0.25257,0.86477,0.73715,-0.18094,-0.76763,0.6861,0.48213,-0.30849,-1.1247,-0.38504,0.1506,0.40559,0.22703,0.32913,-0.25748,-0.027969,0.15052,0.07402,-0.002454,0.023103,0.048531,0.25258,0.048536,-0.15549,-0.33403,-0.078977,0.17609,0.048555,-0.30854,-0.10451,0.43111,0.50762,0.023054,-0.20647,-0.30852,0.45664,0.15058,0.074002,-0.64015,-0.58908,0.074062,0.86473,0.45662,-0.46149,-0.56357,0.25251,0.0741,-0.23204,-0.002454,0.15049,-0.12995,0.76266,-0.053464,-0.28302,-0.74211,-0.078972,0.43113,0.22707,0.099632,-0.97171,-0.43609,0.35461,0.53317,-0.002443,-0.33406,-0.053439,0.45662,0.023041,-0.181,-0.30855,0.074013,0.38011,-0.028005,-0.33405,-0.64008,-0.12997,1.2473
