0.022956,0.17597,0.30352,0.022968,-0.23201,-0.078923,-0.027876,-0.15539,-0.027889,0.32911,0.15046,0.099466,0.099479,-0.13007,-0.33404,-0.10441,-0.18093,-0.05339,0.17617,0.30363,-0.053562,-0.25758,0.048458,-0.002565,-0.13001,0.099619,0.074118,-0.18094,-0.28294,-0.002448,0.099473,0.45656,0.40556,0.125,-0.35953,-0.1044,-0.18091,-0.18092,-0.078904,0.22707,0.048451,-0.1556,0.22699,0.073953,0.048543,0.074124,-0.027882,-0.33396,-0.38494,0.048549,0.22702,0.3545,0.50757,0.099479,-0.58908,-0.10443,-0.027913,-0.84396,-0.92045,0.074013,0.76258,1.5532,0.686,-1.3797,-0.35959,-0.053439,0.58418,0.12518,0.22717,0.12503,0.099497,-0.43601,0.12499,-0.18109,-0.35956,-0.41049,-0.20643,-0.12989,0.58427,0.38014,-0.028085,-0.18113,0.35449,-0.33402,-0.18095,0.30364,0.78822,-0.51242,-0.53796,0.22697,-0.079124,-0.30858,-0.6911,0.55858,0.48206,0.53321,0.32917,-0.66548,-0.15538,0.17607,-0.002546,0.20145,-0.28313,-0.053573,0.048561,0.15068,0.12514,-0.41046,-0.15543,0.40552,-0.79316,-0.053525,-1.6345,0.17605,0.40556,0.15055,0.45658,-0.33387,-0.25743,0.022986,0.68597,-0.28313,0.91556,0.86466,0.30355,-1.8386,-0.30846,-0.10439,0.35473,0.023005,0.022925,-0.51271,0.27802,0.96674,0.074069,-0.43604,-0.25743,-0.71654,-0.487,-0.053488,-0.028042,0.35453,0.58402,0.40549,-0.61445,0.40578,0.17612,-0.43605,-0.07891,0.43117,0.35449,0.12494,-0.23205,-0.38513,-0.41057,-0.33398,-0.12989,0.023084,0.38025,0.60972,-0.20655,-0.56364,-0.10458,0.17597,0.4311,0.40562,-0.12988,-0.436,-0.33399,0.5842,0.38004,0.27796,-0.51272,-1.3033,0.40566,0.94139,1.273,-0.25744,-0.69104,-0.41059,-0.5637,0.3545,0.53304,0.22699,0.43105,-0.46142,0.94117,-3.5727,-0.15547,0.91562,0.38017,-0.027962,0.7625,-0.4871,0.099521,0.17606,0.048604,-0.002448,0.048598,0.35462,0.99221,0.43104,-0.43616,-0.43619,-0.97163,-0.76755,0.074173,0.91592,0.43125,-0.61462,-0.66576,-0.10459,0.5841,0.227,-0.33408,-0.002423,0.58427,0.60982,-0.33398,-0.33409,-0.43614,0.17597,1.0942,0.63514,-0.38505,-0.48705,-0.053384,-0.84408,-0.30848,-0.078984,0.35461,0.27803,0.71146,-0.38509,-0.35949,0.63522,-0.86949,-0.41051,-0.20634,0.45666,0.96661,0.22692,0.1759,0.099375,-0.10449,0.73714,-2.68,-0.053275,-0.33396,0.38006,0.43097,0.55853,0.66058,0.25247,-0.25757,-0.15542,0.12515,-0.053353,-0.28292,-0.053458,-0.15558,-0.48714,0.20152,-0.30863,-0.25752,0.78834,0.73733,-0.10442,-0.61455,-0.61464,-0.002565,0.04842,0.25252,0.60955,0.55867,-0.86952,-0.20639,-0.25745,0.023133,-0.00251,-0.028078,0.048561,0.7371,0.38001,-0.10451,0.09957,0.30366,-1.6345,-0.10441,-0.20653,0.099387,-0.053598,0.81366,0.53306,1.0941,-2.2721,0.4821,-1.8131,-0.25739,0.76265,0.53301,0.73709,0.86466,-0.23216,-0.79321,-0.58903,0.22722,0.43128,0.27829,-0.053458,-0.4362,0.12501,0.43108,-0.51269,-0.48714,-0.30848,0.12514,-0.46151,-0.23192,1.0688,0.32905,0.27802,0.15046,-0.1046,-0.5126,0.38017,-0.027882,-0.15534,-0.28289,0.55867,-0.079106,-0.25761,0.45656,0.68605,0.55859,-1.3795,-0.74199,-0.66552,0.38016,-0.334,-0.33408,0.6095,0.55853,0.40546,-0.43601,-0.002381,0.023127,-0.28297,0.38018,-0.46145,0.50759,0.45656,0.12502,-0.48716,-0.43607,-0.15548,-0.1299,-0.385,-0.51255,-0.4615,1.0177,1.1198,1.0687,-0.20663,-0.13005,-0.53805,-0.66553,-0.027913,-0.9206,-0.48711,0.35452,0.66062,1.0687,0.38003,0.15059,-0.41051,-0.92056,-1.1756,0.55867,0.099644,0.099521,0.99202,0.048549,0.78822,-0.76757,-0.58904,-0.20652,-0.48706,-0.41049,0.40557,1.0688,0.86451,-0.2575,0.15045,-0.48705,-0.487,-0.74203,0.53331,-0.58903,-0.18099,0.15049,-0.028078,0.99223,0.15047,-0.5126,-0.385,0.3037,0.45675,0.73736,-0.28302,-0.028109,-0.61475,-0.56374,-0.38517,0.099521,0.66072,0.27825,-0.63991,-0.078874,0.32907,0.68611,0.17602,0.584,-1.5327,0.53308,0.20151,-2.1701,0.074111,0.86475,0.30369,0.58402,0.15045,-0.002607,0.12496,-0.28306,0.35475,0.30372,-1.0991,-0.66555,-0.33404,0.099466,0.6096,0.22699,0.17601,-0.41054,-0.20647,0.15067,-0.43601,0.50776,1.0178,1.0433,-0.48725,-0.23213,-0.30862,-0.71666,-0.28298,-0.25746,-0.23192,-0.18092,0.32914,0.63512,1.4258,0.099473,-0.97168,0.022974,-0.38499,0.048585,0.15058,-0.12995,-0.078928,0.40549,0.30357,0.27804,-0.33405,1.4001,-3.5983,-0.027889,0.58424,0.4312,0.58405,0.37996,1.2981,-0.53812,-0.28315,-0.35956,-0.10443,-0.385,-0.334,0.30373,1.426,-0.23213,0.96672,0.22701,-0.48717,-0.79316,-0.61454,-0.31033,-0.38683,-0.23382,0.19971,0.99221,0.8647,0.53308,0.17598,-0.74214,-0.64016,-0.66559,-1.2265,-0.30841,0.81371,0.66064,1.2472,0.81368,0.60962,0.12497,-1.4307,-0.64013,-0.35961,-0.86955,-0.002448,0.22714,0.86471,1.0688,0.76256,-0.71663,-0.079106,-2.1701,-0.94611,-0.6656,0.38011,1.6298,-0.078879,0.58414,1.0177,-0.35956,-0.84416,-0.86969,-1.3033,-0.053335,0.50768,0.76272,0.25251,0.66063,0.38008,-0.30854,-0.05339,-0.38499,-0.86964,-1.0737,-0.078977,0.89026,0.91572,0.7116,0.94114,-0.28308,-1.4052,-0.56356,-0.33401,0.15055,0.60967,-0.94594,0.30363,1.3493,0.35451,-0.46162,-0.20657,-0.41058,-0.23205,-1.2011,-0.10446,0.81366,1.1707,-1.0224,0.6862,0.17614,-0.53812,-0.46165,-1.9917,-0.35942,-0.053476,0.22697,0.482,0.89017,1.4513,0.58419,-0.71663,-0.15543,-0.74206,-0.89512,0.12511,0.71169,0.04842,-0.46162,0.45657,0.55875,-0.20642,-0.66561,-0.97169,-0.56359,0.12513,1.0687,1.3747,1.1707,-0.41049,-0.61454,-0.002423,-0.002436,-0.6656,-0.46154,-0.002472,0.76266,0.50763,0.60965,0.38006,-0.71665,-0.53812,-0.56356,-1.1245,-0.35948,-0.002448,0.83915,1.0942,1.2473,0.55862,-0.76768,-0.46157,-0.56357,-1.2522,-1.1247,-0.35951,1.7829,1.0943,0.81366,0.63511,-0.35954,-1.2777,-0.64011,-0.79313,-0.23197,0.73725,0.20159,2.4457,0.63507,-3.6747,0.22707,-0.20657,-0.10455,0.099577,0.48219,0.81365,0.81366,0.176,0.4311,0.30362,-0.81866,-1.0227,-0.56352,-0.38494,-0.61452,-0.053439,0.94123,0.9667,-0.15562,-0.7423,-0.69117,0.76282,0.55879,-0.23194,-0.64005,0.074051,0.48208,0.58413,0.17596,0.63509,-0.12998,-0.4106,-0.46153,-1.0991,-0.79309,-0.38502,0.99224,1.0177,1.6297,-0.61445,0.38009,-0.7421,-1.0482,-0.84421,-0.181,-0.71635,1.2218,0.48205,1.0432,1.1451,-1.8134,0.12504,-0.53798,-0.58909,-0.56358,0.25258,0.78812,0.38,0.68613,1.1454,0.25263,-0.61459,-1.0482,-0.92065,-1.4563,-0.12998,1.2984,1.4259,1.2983,0.2015,-0.43612,-1.0482,-1.1757,-0.69115,-0.8696,0.50769,1.4004,1.0432,1.0942,0.048604,-0.30852,-0.81862,-0.48716,-0.71667,-0.94605,-0.05339,1.0687,0.94116,0.50755,-0.079014,0.55857,-0.30853,-1.5581,-0.56354,-0.48705,0.45664,0.81376,0.60961,0.15053,0.45656,0.27808,-0.25749,-0.4105,-0.23202,-0.94617,-0.58904,0.55861,1.1453,0.50762,0.43112,-0.18105,-0.79315,-0.51254,-0.20642,-0.51251,-0.002472,0.68617,0.73708,0.15059,0.83917,0.55864,-0.41055,-1.4052,-1.1247,-0.79313,0.32916,1.4768,1.5532,-0.97147,0.76263,0.048518,-0.25751,-0.53801,-0.6656,-0.9717,0.35465,0.83926,0.73713,0.55858,0.099632,0.76256,-1.1247,-0.84411,-0.7931,-1.0736,0.73719,0.96671,0.68613,0.86465,-0.20649,-0.51261,-0.51256,-0.35949,-0.35947,-0.46148,0.17612,0.48213,0.38006,0.63512,0.91572,0.099601,-1.0227,-1.3288,-0.48705,-0.48699,-0.12997,1.1453,1.2473,0.60965,-0.15554,-0.48716,-0.56359,0.074081,-0.23204,-0.81866,-1.8386,1.9103,0.86478,1.2217,0.7116,0.50747,-0.38509,-1.6347,-0.92056,-0.56342,0.96679,0.78808,1.2472,0.329,1.2725,-1.3032,-0.51255,-0.41044,1.0433,-1.8133,-0.027931,1.0433,1.1961,0.22674,-2.323,1.1964,0.68628,-1.0993,-1.3288,-0.97174,0.12512,1.3238,1.1452,0.73709,0.35468,-0.15546,-0.71662,-0.81864,-0.81863,-0.48706,0.53317,-1.0224,0.27808,1.3236,2.2164,-0.48701,-0.41057,-0.35957,-0.74222,-0.51259,-1.0735,1.2473,0.66055,0.68612,0.32912,-0.28305,-0.46159,-0.86959,-0.53798,-0.23189,0.35465,0.20153,0.63512,0.30352,0.83913,0.09954,-0.51254,-0.43597,-0.71659,-0.43602,-0.99718,0.73715,1.1452,1.2728,0.89015,0.073977,-1.6603,-0.46156,-0.41054,-1.0737,-0.05336,1.3238,0.2015,0.20142,0.45656,0.50762,0.20155,0.45654,-4.0062,-1.8387,0.83911,2.1143,-0.66545,0.32904,0.55852,0.048402,-0.002558,-0.23208,-0.3849,-0.92048,0.91583,0.68616,0.7881,0.27804,0.073965,-0.3851,-0.64009,-0.64005,-0.58904,-0.76758,-0.12991,1.1198,1.0687,-0.41054,0.45651,0.8392,0.20157,-1.3287,-0.69111,-0.1809,0.2271,0.12496,0.27797,0.71165,0.91573,-0.64015,-0.15553,-0.46156,-1.7365,0.048629,0.40562,0.20158,-0.10453,0.45657,0.48201,0.25258,-0.33404,-0.002423,-0.64003,-1.1502,0.78814,0.86469,0.22705,-0.35951,0.91576,0.17604,-0.283,0.76254,-2.8333,-1.1502,1.0686,0.20166,1.1197,0.58414,0.66058,0.20149,-0.33409,-0.56355,-1.0737,-0.81854,0.3802,1.2984,0.50761,0.35456,0.35451,-0.33406,-0.61445,-0.48708,-0.05347,-0.71656,-0.078959,0.71163,0.27798,0.53308,1.0177,-0.15549,-0.89516,-0.56355,-0.078941,0.099588,0.81378,-0.10436,0.53302,0.278,0.12496,-0.25765,-0.58914,-0.79289,-0.002338,-0.43608,0.60962,-0.002443,0.71158,0.5076,0.35457,-0.028036,-0.53809,0.17613,0.96659,-2.5527,-0.18094,0.73712,0.76261,0.38003,0.8136,0.1505,-0.38501,-0.053323,-0.23201,-1.0482,-0.81871,0.94124,1.6044,0.71165,-0.10462,-0.53816,-0.6656,-0.81861,-0.18094,-0.74206,0.45672,0.73717,0.71163,0.63514,1.1453,0.17595,-0.7677,-1.7366,-0.027907,-0.64002,0.35459,0.48204,0.89005,0.71163,0.40557,-0.38503,-0.51257,-0.64007,-0.53809,-0.6401,-0.10439,0.78819,1.5788,1.9103,0.27812,-0.56364,-1.0991,-0.66562,-0.53812,-0.79308,0.2271,1.2728,0.78811,0.38003,0.60962,-0.38509,-0.38499,-1.1502,-0.74208,-0.002356,1.4005,0.048531,0.099424,0.099461,0.43101,0.30349,-1.0737,-1.252,-0.46144,0.023035,-0.18099,1.3748,2.3693,-2.8842,1.1197,-0.079063,-0.53816,0.4311,-1.2776,-0.48708,-0.25746,1.0433,0.7117,0.73715,1.0432,-0.61472,-0.99722,-1.1502,0.43124,-0.38493,-0.053451,0.3545,0.3546,0.55871,0.66057,-0.10455,-0.74216,-0.99717,-0.41051,-0.43607,0.5842,0.66078,1.4258,0.38007,0.63507,-0.28309,-0.9461,-0.002485,-1.9916,-0.053488,0.6351,0.023194,1.0432,0.60955,1.4511,-1.2777,-0.53814,-0.6146,-0.23197,-0.33397,0.63531,1.6044,0.78814,-0.0791,0.40547,-0.84422,-0.7166,-0.35944,-0.41054,-0.9716,0.074118,1.2218,0.63511,0.78821,0.4311,-0.028036,-0.33401,-0.71668,-0.97169,-1.099,-0.07891,0.83925,1.5277,0.71155,-0.56358,0.022961,-0.38505,-0.1555,-0.12997,-0.64005,0.20157,0.50762,0.66075,0.73723,0.25252,-0.15554,-0.7931,-0.6912,-1.6857,-0.48697,0.048536,0.81364,1.1197,1.1707,-0.053446,0.27807,0.55876,-0.89518,-1.1503,-1.0737,0.43115,0.68615,1.2728,0.73719,0.2015,-0.3341,-0.74211,-0.53803,-0.10449,-0.027871,-1.303,0.5331,1.0177,0.66062,0.40557,-0.079093,-0.86965,-0.23202,0.023065,-0.69105,0.25257,0.53317,0.50766,0.50762,0.78813,-0.13004,-0.15549,-0.053513,-3.0882,-0.61454,-0.12995,0.45656,1.1452,-0.002607,0.99213,0.32908,-0.20644,-1.1248,-0.35945,-0.027822,0.32921,0.022986,0.12496,0.25249,0.60962,-0.079002,-1.1757,-0.12991,-0.15546,-0.66556,0.17613,0.73718,0.86464,0.50757,1.0431,0.048506,-2.4252,-0.43602,-0.43602,0.022974,-0.053451,1.1197,1.1962,0.76266,0.71164,-0.28308,-0.46153,-0.48702,-1.2012,-0.92065,0.63521,1.0433,0.40565,0.073946,0.3545,0.25252,0.1251,-0.35951,-0.69114,-0.48702,0.55874,-0.053544,0.71168,0.32905,0.48209,-0.48711,-0.07891,0.1762,-0.4615,-1.0992,-1.0483,-0.1045,1.6299,1.0943,0.83918,0.22694,-0.38514,-2.4507,-1.2521,-0.64004,0.50762,1.4002,1.5277,-0.33387,0.99226,0.45652,-0.71664,-0.56362,-0.58906,-1.1245,-0.02792,0.99228,0.6606,0.048463,0.27803,0.07402,-0.41049,-0.12994,-0.35947,-1.0481,-0.41052,0.60967,0.32902,0.53311,0.89018,-0.002534,-0.41052,-0.76752,-0.35949,-0.81866,0.6097,0.94121,0.58404,0.3036,0.45666,-0.053549,-0.74214,-0.2576,0.35457,-2.8077,-0.92058,0.81366,1.1452,0.71165,1.6808,-0.48707,-0.64004,-0.30851,-0.76764,-0.94613,0.099546,2.0123,0.25267,0.48206,1.0432,-0.28305,-0.41054,-0.51254,-0.41053,-1.2012,-0.10447,0.71171,0.78815,0.63516,0.048616,-0.18107,-0.99721,-1.1246,-0.41056,-0.25747,0.45673,1.5789,0.76264,0.12499,0.35454,0.023017,-0.53807,-1.0737,0.12505,-0.053482,-2.2976,0.20161,0.38011,0.60963,0.76263,0.32898,-0.38502,0.099595,-0.181,-0.79311,-0.078935,0.32905,0.48211,0.074062,0.30369,0.27805,-0.079039,-0.79312,-0.53807,-0.61458,-0.25745,0.20155,0.35456,1.0177,1.2218,-0.027938,-0.35954,-1.1757,-0.56357,-0.58902,0.50768,0.25252,0.1506,0.86466,0.86464,0.45653,-0.5126,-2.7822,0.074002,-1.2776,-0.002448,1.2472,1.2473,0.9922,0.12494,0.50762,-0.028018,-3.0372,-0.76757,-0.56359,-0.002472,0.76267,0.53308,0.45656,0.55858,-0.12998,-1.0736,-0.002454,0.20165,-0.8696,-0.41053,0.32908,0.94122,0.53311,0.7116,0.6352,-0.9206,-1.3798,-1.0992,-0.38499,0.71178,0.55868,0.60957,0.76264,0.3036,0.074051,-0.33406,-0.35957,0.023023,-1.0481,-1.6601,0.71165,1.0432,0.58408,0.8901,-0.23202,-0.23202,-0.23199,-1.0225,-0.81869,0.074081,0.83925,1.3493,0.3291,0.45655,-0.18101,-0.35956,-0.12996,-0.94614,-0.89519,-0.078966,0.89025,0.48206,0.048445,0.73715,0.09954,-0.33399,-0.12987,-0.38497,-0.66556,-0.2575,0.73721,0.66058,0.43107,0.6096,-0.18109,-0.81857,-0.61455,-0.61456,-0.51253,0.38013,0.30363,0.94112,-0.33393,1.3747,-0.94615,-0.66562,-0.30849,-0.12998,-0.56356,0.17612,1.2983,0.91561,-0.51254,0.50757,0.20148,0.048616,0.048629,-1.1502,-1.2522,-0.5125,0.71167,0.6861,0.73714,1.0432,-0.053513,-0.81863,-0.48702,-0.28298,-0.51252,0.25265,1.0433,0.43106,0.278,0.40555,-0.053482,-0.76763,-0.79313,-0.3595,-0.35946,-0.02795,0.68618,0.40561,0.76263,0.53314,-0.181,-1.1756,-0.2066,-0.2575,-0.86957,0.3291,0.94125,0.99216,1.0177,0.53308,0.15059,-0.69107,-1.0992,-1.4818,-1.0226,0.35465,0.68617,1.5023,-0.30847,1.2727,-0.69105,-0.58907,-0.6146,-0.027931,-0.61455,0.12509,0.45658,0.60959,0.48213,1.0432,-0.002485,-0.48706,-1.5071,-0.20646,-0.38502,0.15056,0.48212,0.89015,0.023047,-1.15,0.27798,-0.07907,-0.9206,-0.2319,-0.33399,0.48217,0.63514,0.78815,0.30354,0.38005,-0.43609,-0.86962,-0.84412,-0.7166,-0.76754,0.074111,0.96674,1.2728,0.94121,0.40556,-0.13006,-0.51258,-0.66559,-0.69111,-0.94612,0.63528,0.68616,0.48208,0.40556,0.40555,-0.48714,-0.66561,-0.43597,-0.48706,-0.66556,0.22716,1.3239,1.0433,0.63508,0.73705,-1.3797,-1.0227,0.40558,-1.7366,-0.079051,-0.078953,1.0432,1.7827,-0.79296,0.7117,0.25252,-0.41052,-0.51257,-0.92061,-0.94614,0.30368,0.43108,0.78817,0.78823,0.073922,-0.053525,0.30371,0.023145,-1.2268,-1.4053,0.27812,0.55862,0.73733,0.40557,-0.028096,-0.53818,-0.35953,-0.41049,-0.33401,-0.20642,0.35467,1.1708,0.71164,0.50757,-0.027974,-0.028036,-0.71661,-0.92057,-0.35955,-0.43606,0.25254,-0.76746,0.66065,0.89018,0.63517,0.27801,0.30343,-1.6346,-0.30852,-0.71661,-0.30851,0.73717,0.32905,1.1453,1.2728,0.17607,-1.0992,-0.92065,-0.28306,-2.2468,-0.58912,1.885,1.5279,0.71162,0.35451,-0.94628,0.12514,-0.15544,-0.81861,-1.3797,-0.74214,0.35455,0.94118,1.1708,1.4003,-0.002497,-0.81864,-1.3031,-0.13003,-0.71656,-0.99699,0.76273,0.99217,0.7116,0.53308,-0.13005,-0.18109,-1.5326,-1.2011,-0.30845,0.68611,-0.23187,1.0687,0.32902,0.99218,0.074013,-0.33404,-0.46153,-0.61454,-0.89505,-0.15548,0.4311,0.45656,0.4821,0.86469,0.20155,-0.66564,-0.64006,-0.43596,-1.2777,-0.35954,1.2984,1.1963,0.55861,0.40551,-0.07907,-0.56353,-0.30847,-0.51254,-1.2521,-0.053451,1.0177,1.2216,1.0942,-0.94592,-0.10453,-0.3086,-0.33409,0.30355,-1.3796,-0.38498,0.50769,0.78816,0.71158,1.5533,-0.15559,-1.0991,-0.64008,-0.48702,-0.79305,-0.02792,0.60965,0.48207,0.78817,1.0177,-0.35958,-1.2523,-0.30848,0.12515,-0.84411,-0.18098,0.73718,0.40554,0.022961,0.78813,0.074051,-0.66558,-0.12993,-0.28297,-0.56356,-0.2575,0.73725,1.0687,0.9412,0.45659,-0.46157,-0.41063,-0.56354,-0.66562,-1.0992,0.27807,0.86473,0.099601,0.55859,0.32908,0.3035,-0.15553,0.20164,0.048634,-0.89507,-0.66561,-0.2321,0.73714,0.38006,0.22702,0.17606,-0.20645,-0.38499,-0.71657,-1.0481,-0.078959,0.86477,0.99224,0.55862,1.2217,-0.46165,-0.97168,-0.97169,-0.51254,-0.64001,0.30365,0.76268,1.3238,0.20161,-0.10441,-0.20652,-0.79314,-0.33406,-0.51262,-0.079033,-0.002436,-0.97142,0.81368,1.4257,1.0431,-0.10456,-0.10455,-0.538,-0.79305,-1.2521,0.53325,0.81372,0.2525,0.48209,0.89016,0.25258,-0.53804,-0.81862,-0.86963,-1.2777,-0.25751,0.60965,0.96668,0.60962,1.0942,0.35461,-0.51254,-0.84411,-0.61454,-0.74203,-0.002443,0.63515,1.1453,0.60965,0.43103,-0.69122,-0.48705,-0.23194,-0.66551,-0.53805,0.12499,1.5022,1.0687,-2.7566,1.2982,0.50751,-0.35962,0.048549,-0.56358,-0.51255,-0.15538,0.3546,0.73715,0.32904,0.58409,-0.02798,-0.33399,-0.6145,-0.69103,-1.2267,0.25264,0.4821,0.40553,0.022937,1.3748,0.40558,-0.53805,-0.61457,-0.48701,-1.1502,0.27815,0.60965,0.86469,0.45658,0.86467,-0.7167,-0.20646,-0.61454,-0.48697,-0.99718,-0.12999,1.1707,1.1452,-0.69099,-0.28295,0.35452,-0.002521,-0.28303,-0.18098,-1.3031,-0.30847,0.86469,0.99217,0.5841,1.0942,0.35456,-0.43604,-1.5836,-0.92062,-0.9462,0.30363,0.58412,0.81368,0.50764,0.6096,0.099515,-0.74211,-0.56354,-0.053409,-0.76753,-0.89518,0.12502,0.20147,1.3493,0.9157,0.50763,-0.053427,-0.436,-0.56353,-1.0736,-0.2575,0.35459,0.7371,0.15053,1.2472,-0.2065,-0.8951,-0.078996,-1.048,-0.69103,0.40565,1.5787,1.4768,-0.94605,0.86467,-0.69122,-0.86965,-0.89502,0.48221,-0.33393,-0.35951,0.12503,0.63509,0.32902,0.60958,0.38013,-1.0482,-0.46153,-0.64004,-0.20639,0.048604,0.58415,0.99221,0.099466,0.68611,0.30356,-0.56358,-1.0737,-0.43604,-0.12988,0.17617,0.50763,0.45652,0.22696,1.1452,-0.053421,-1.0992,-0.61463,-1.4306,-0.64009,0.43109,0.99224,0.89015,0.48201,0.99213,-0.48705,-0.58906,-0.74198,-0.5635,-1.0736,-0.053397,0.60961,0.94124,0.76263,0.8902,-0.35954,-0.86963,-0.86969,-0.41053,-1.2521,0.38017,0.048525,0.60958,0.71162,0.9412,-0.00251,-0.64011,0.099644,-0.28289,-0.92061,-0.33404,0.25256,0.25248,0.9412,1.5533,0.27804,-1.8132,-0.10452,-0.41051,-1.5582,-0.079002,0.099613,1.5787,0.86462,0.40563,0.78814,-1.0736,-0.71663,-0.94617,-0.97163,0.27819,1.3239,0.66063,0.27806,-0.20666,-0.84426,0.04861,0.22722,-0.4615,-1.4818,-0.10443,1.2983,1.0942,0.07402,0.30356,-0.25758,-0.41055,-0.48705,-0.18094,-0.51249,-0.053458,0.50759,-0.078917,0.76263,0.96661,-0.18101,-0.028029,-0.76757,-0.71653,-0.53811,-0.5125,0.94123,0.43114,1.0431,0.94114,-1.4816,0.60974,-0.18097,-0.46156,-1.2012,-0.41061,0.25256,0.60967,0.2525,0.76265,0.048536,0.074124,-0.23196,-0.23191,-1.2522,-0.33401,0.22705,0.94124,0.86467,0.83914,-0.028029,-0.48706,-0.81862,-0.38502,-0.86958,0.099595,0.73719,0.50766,0.68603,0.76262,-0.35951,-0.43607,-0.10452,-0.61453,-0.28306,0.63512,-0.38492,1.1707,0.38007,1.3493,0.32905,-0.61463,-0.81863,-0.30847,-0.84409,-0.41053,0.27809,0.96677,0.48204,0.58409,-0.56364,-0.25745,-0.20645,-0.53805,-1.1247,-0.002412,1.0943,1.0177,0.25254,0.43102,-0.079057,-0.66561,-0.61456,-0.30849,-0.69107,0.17614,0.50765,0.71164,0.63511,0.45657,-0.181,-0.12996,-0.18092,-0.74212,-0.13004,-1.0735,0.3036,0.73712,0.45654,0.94117,0.43103,-1.0737,-0.5379,-0.002461,-1.2012,-0.10446,0.78815,0.89013,0.35456,0.78813,0.53313,-0.20645,-0.94613,-0.79312,-0.76755,0.30371,0.99227,0.55861,0.20153,0.4055,-0.28309,-0.81868,-0.53804,-0.33398,-0.84411,-0.33401,1.1708,1.0943,0.66063,0.76265,0.27806,-0.74211,-0.43606,-1.8387,-0.35946,-0.12998,0.6351,0.73712,0.86463,1.1452,-0.10451,-0.71657,-0.51257,-1.0226,-0.99715,-1.1244,0.76269,0.71161,1.0432,1.3238,0.25251,-0.84419,-0.86968,-0.81863,-1.5328,0.15065,0.78825,0.66064,0.91575,1.3748,-0.053495,-0.64011,-0.69109,-0.23196,-0.74205,-0.33399,0.43105,0.32904,0.40557,1.1707,0.22708,-0.46151,-0.56354,-0.053531,-1.3031,-1.3285,0.83913,1.1962,0.45657,0.86463,0.048549,-0.38505,-0.30856,-0.538,-1.2266,-0.25745,0.96674,0.20149,0.43106,1.1453,0.43107,-0.66567,-2.2722,-0.18098,-0.538,-0.12998,0.58409,0.94119,0.73713,0.60959,0.35458,-0.74213,-0.385,-0.46148,-1.0226,-0.002387,0.66069,0.5586,0.48209,0.48204,0.86463,-0.23204,-2.0172,-0.58908,-0.71663,0.20156,0.60965,0.86469,1.2217,0.48214,0.45654,-0.23209,-1.6856,-0.28302,-1.5327,-0.002443,0.73715,0.99218,0.50756,0.96671,0.86478,-0.71664,-0.86965,-0.66556,-0.9971,0.20163,0.60964,-0.053451,0.27798,0.27802,0.38002,0.17614,0.048641,-0.58907,-0.86966,-0.232,0.3546,0.83918,0.48209,1.1452,0.32905,-0.66555,-0.99714,-0.28299,-0.43599,0.023084,0.2525,0.40554,0.40557,0.86463,-0.20658,-0.48706,-0.35942,-0.23193,-0.64009,0.17607,-0.23196,0.45659,0.22705,1.6043,0.099515,-0.86967,-0.23194,-0.20642,-0.71657,-0.079002,0.17604,-0.079033,0.60964,1.5023,-0.053384,-0.46154,-0.99708,-0.10448,-0.61457,-0.23202,0.58409,0.60958,0.48208,0.40552,0.30356,-0.12983,-0.30846,-0.28297,-1.1757,-0.38506,0.32906,0.074057,0.63509,0.71161,0.15052,-0.56353,-0.41051,0.12513,-0.15548,-0.66552,0.30353,0.4821,0.55861,1.1452,0.30349,-0.43609,-0.79308,-0.41052,-0.86963,-0.002418,0.73723,0.89019,0.63514,0.94114,-0.74215,-0.23199,-0.41047,-0.9972,-0.99713,0.40572,0.60969,0.60959,0.40551,0.53309,0.55862,-0.5891,-0.89515,-1.1247,-0.84405,0.30371,0.99229,1.2983,0.66067,0.4821,-0.2066,-0.58913,-0.94612,-0.20648,-0.76757,0.27806,0.15062,-0.76742,0.63511,1.5022,0.76261,-0.71659,-0.71656,-0.18097,-0.84412,-0.33402,0.32907,0.63512,0.17604,1.0688,0.55866,-0.74212,-0.81859,-0.28297,-1.2522,-0.6146,0.4311,1.1963,0.60963,0.76264,-0.028029,-0.35953,-0.41049,-0.12993,-0.69106,-0.3595,0.40561,0.58409,-0.02806,1.6299,0.38005,-0.71663,-0.7421,-0.61457,-1.5582,-0.46147,0.78817,0.96663,1.0177,0.71168,-0.53801,-0.18106,-1.8641,-0.41058,-0.89515,-0.12995,1.2728,1.0687,0.25249,0.58409,0.023023,-0.385,-0.69107,-1.0227,-0.89507,0.099626,0.48217,0.78818,0.58403,0.40553,0.3291,-0.35959,-1.0226,-0.41051,-0.71654,-0.23198,0.89021,0.96669,0.45654,0.9922,-0.23201,-0.05347,-0.6911,-0.66562,-0.74199,-0.92055,0.81362,0.73714,1.5532,-0.15538,-0.25757,0.25244,-0.51255,-0.64005,-0.43603,-0.15544,0.78825,0.83921,-0.079093,0.32907,0.25262,0.17608,-1.0481,-0.69109,-1.1247,-0.30851,0.32903,0.6096,1.1708,0.35459,-0.20652,0.32917,-0.18095,-0.53808,-1.4562,-0.15548,0.53313,0.81366,0.63513,0.81365,-0.20658,-0.30851,-0.48701,-0.6911,-0.46154,-0.20629,0.63516,0.89007,-0.66556,-0.20646,0.43104,0.32907,-0.1301,-0.64001,-1.2521,0.30363,0.66064,1.1708,0.074013,0.45651,0.27796,-0.53807,-0.71652,-0.002485,-1.2521,0.20165,0.96679,0.53311,-0.028103,0.63511,-0.13007,-0.33403,-0.56353,-0.1554,-0.84407,-0.56357,0.25256,1.1198,0.50762,0.50757,-0.33412,-0.43602,-0.23196,-0.30848,-0.9206,-0.76763,0.45666,1.1962,0.45659,0.66061,-0.028042,-0.64012,-0.41056,-1.2777,-0.92054,0.38017,0.96672,0.22715,0.66054,1.5276,-0.89505,-0.18107,-0.41056,-0.35952,-0.64008,0.50774,0.6096,-0.027931,0.43107,0.58411,0.02298,-0.53807,-0.25745,-0.64004,-1.1502,-0.25748,0.68618,0.9157,1.4769,0.22694,0.30356,-0.81866,-1.1247,-0.99719,-1.1247,0.15064,1.0433,0.89021,0.63512,0.89018,-0.15557,-0.46154,-0.53803,-0.30845,-0.66554,-0.25748,-0.02809,1.4513,0.099626,0.48205,0.35438,0.073989,-2.9607,-0.20649,-0.86961,0.76272,0.99221,0.76258,0.2015,0.50759,0.32905,-0.46153,-0.436,-0.25744,-1.4307,-0.53802,0.7117,0.78817,0.35454,0.81364,-0.30861,-0.66562,-0.25746,-0.35951,-1.2267,0.20167,0.71173,1.0177,0.35454,0.55861,-0.079033,-0.66561,-0.69108,-0.48699,-1.0481,-0.002454,0.71165,0.89013,0.25256,1.2217,-1.4561,-0.69114,0.15052,0.17611,-0.56359,-0.58912,0.40562,1.0177,0.27805,0.17607,0.227,-0.23203,-0.027773,-0.25746,-0.84409,-0.28306,0.50755,-0.48697,0.48204,0.7116,0.53316,-0.48707,-0.79315,-0.53809,-0.7931,0.22722,0.32911,0.66065,0.83915,0.7371,-0.28308,-0.38503,-0.078879,-0.35951,-1.0737,-0.76753,0.45661,1.0942,0.63509,0.1507,0.35454,-0.64015,-0.64004,-0.18103,-0.99715,-0.20647,0.53309,1.0943,0.96667,0.91564,-0.46156,-0.97164,-0.46157,-0.33399,-0.33399,0.58416,0.25262,0.89019,0.17602,0.73707,0.09951,-0.56359,-0.30849,-0.51254,-0.92062,-0.28297,0.8393,0.60959,0.35455,0.3035,0.27806,-0.25746,-0.92058,-0.58906,-0.84412,-0.002436,0.91575,1.1707,0.60956,0.12512,0.099497,-0.79315,-0.61454,-0.46159,-0.89504,0.32918,0.73718,0.89013,0.43103,0.04858,0.32902,-0.38507,-0.86955,-0.46153,-1.0227,-0.25744,1.4769,0.96674,0.35455,0.78816,0.22702,-0.35954,-1.0737,-0.71661,-1.1757,-0.51253,1.2218,1.1963,0.38006,0.099442,-0.15555,-0.20645,-0.10447,-0.84419,-1.5835,0.76284,1.0432,0.17595,0.55858,1.3493,0.15052,-1.1757,-0.86963,-0.97155,-0.89514,-0.15548,0.81364,1.0687,0.66064,1.0942,0.17603,-0.97166,-0.76752,-0.81856,-0.58912,-0.74203,0.78829,1.3238,0.43099,0.48212,0.35456,-0.92072,-0.58907,-0.15545,-0.94611,-0.027895,0.99232,1.1198,0.2525,0.15045,-0.58919,-0.66561,-0.64004,-0.33396,-0.51249,0.35473,0.3801,0.81364,0.89013,0.76267,-0.053592,-0.69116,-0.71657,-0.56353,-1.5581,0.15057,1.0432,0.76268,1.2727,0.94115,0.2015,-0.7931,-0.76753,-0.99704,-1.1502,-0.027962,1.1707,0.30366,0.43108,0.8392,0.12503,-0.41056,-0.58906,-0.64005,-1.1757,-0.30853,1.1453,1.0178,-0.10456,1.3493,0.09951,-1.2013,-1.3798,-1.1757,0.43131,-0.078917,0.58416,0.66063,0.43107,0.71161,0.40555,-0.56355,-0.64006,-0.53806,-0.81857,-0.15548,0.20161,0.91567,0.3291,0.81366,0.38003,-0.15557,0.35453,-0.10446,-2.1702,-0.002448,0.48212,0.73711,0.38003,0.53307,0.99232,-0.078966,-0.38499,-0.81858,-1.1757,-0.3851,0.17601,0.12507,0.45656,1.0177,0.68619,0.099613,-0.56356,-0.25749,-0.97163,-0.38502,0.3036,0.45654,0.66065,1.1197,0.17601,-0.79314,-0.56357,-0.64006,-1.0226,-0.30849,0.45664,1.4003,0.35455,1.0431,0.3545,-1.5071,-0.28299,-0.12998,-0.56355,0.40556,0.2526,0.89012,-0.92037,0.96669,0.073965,-0.61462,-0.25751,-0.30853,-1.0482,-0.64007,-0.15549,0.89019,0.45658,1.6044,0.2526,-0.71663,-1.2522,-0.38498,-0.81857,-0.25747,0.27806,0.71164,0.89019,0.63512,0.35458,-0.56361,-0.69108,-0.487,-0.20642,-0.43604,0.63518,0.48206,0.53307,0.89011,0.22702,-1.1502,-0.64006,-0.56356,-1.3796,0.5842,0.91568,1.4258,0.53315,0.22711,-0.28308,-0.69111,-0.15545,-0.61458,-0.84414,-0.079008,0.81364,0.27816,0.89021,1.0942,0.32906,-0.81867,-0.81866,-0.43601,-0.15537,-0.86957,-0.10452,0.48207,0.60962,0.96669,0.35458,-0.18095,-0.64004,-0.18099,-0.99716,-0.35953,0.1251,0.35464,0.48204,1.1706,0.278,-0.38503,-0.2064,0.4821,-1.0991,-0.61453
-0.38503,-0.10456,0.15048,0.073977,0.22699,0.4311,0.17616,-0.1299,-0.30848,-0.30843,-0.53806,-0.053549,0.38002,0.25254,0.278,0.40559,0.023121,-0.10441,-0.23196,-0.41043,-0.33401,-0.028036,0.15049,0.35454,0.099442,0.27806,0.25265,-0.1044,-0.23194,-0.18091,-0.43601,-0.079026,0.20149,0.20152,0.27798,0.17604,-0.10441,-0.053402,-0.12992,-0.20639,-0.53809,-0.18105,0.38005,0.38005,0.17598,0.30356,0.023084,-0.12992,-0.436,-0.38495,-0.385,0.022961,0.40554,0.32905,0.25248,0.22705,0.099619,-0.1299,-0.12992,-0.25743,-0.41053,-0.079033,0.12497,0.27802,0.25249,0.45663,0.17614,-0.28295,-0.66556,-0.4615,-0.30849,-0.23207,0.32902,0.48206,0.73707,0.48213,0.15064,0.15064,-0.002472,-0.20648,-1.7366,-0.3595,0.20149,0.91555,0.3545,1.4512,-0.053476,-0.23197,-0.28298,-0.20643,-1.1245,0.22701,0.45651,-0.079057,-0.30859,0.32908,0.55878,0.68632,-0.33399,-0.41049,-0.64003,-0.58918,-0.15562,0.099442,0.55859,0.43113,0.25263,-0.28299,-0.30849,-0.23182,0.60966,-0.18111,-0.028109,-0.66558,0.25251,0.53304,0.58413,0.45666,-0.43583,0.27827,-0.25751,0.15043,0.48197,1.5021,-0.64008,0.15049,0.30358,0.4312,-1.1755,-0.30841,-0.5126,0.25248,0.25248,0.63505,0.15059,0.58425,-0.25747,-0.41051,-0.28296,0.048696,-1.5073,-0.46164,0.83917,1.63,0.099448,-0.38514,-0.30849,-0.56354,-0.25745,0.074191,0.81378,-0.20658,-0.25766,-0.20666,-0.38522,-0.10449,1.4769,1.0943,-2.3486,-0.18093,0.60967,0.8137,0.6606,-0.53821,-0.30876,0.32897,-0.1554,2.9048,-2.3486,-0.5635,0.099657,0.81366,0.30358,0.83903,-0.053616,0.45656,-0.33396,-0.10447,-0.15548,-0.002356,0.12514,-0.2321,0.27798,0.43107,-0.10463,0.12506,-0.053402,-0.002356,-0.41047,0.22727,-0.48708,-0.43615,-0.0791,0.099466,0.048482,0.32907,-0.12998,0.17619,0.4567,-0.05336,-0.46155,-0.10454,-0.89531,-0.30865,1.0177,1.681,-0.15543,-0.43604,-0.97163,-0.66551,-0.66561,0.5585,1.1196,-1.864,0.02295,-0.078972,0.68615,0.89026,0.58424,-0.18089,-0.71663,0.89004,-0.33408,-0.81866,-0.002613,-1.7366,-0.51244,-0.078825,1.0433,0.68621,-1.6857,-0.028011,0.89017,0.99216,0.15039,0.20148,-0.23202,-0.79304,-1.5581,0.048653,0.3037,0.022998,0.17598,-0.028152,0.25248,0.50769,-0.23192,-0.002412,-1.0481,-1.1501,0.3036,0.86469,0.40561,-0.61474,-0.30868,0.8902,1.0688,-0.81851,-0.69112,-0.56351,-0.35963,0.099424,-0.61445,1.6299,0.07394,0.09951,0.023047,-0.23196,0.099546,-0.20648,0.3802,0.27803,1.2982,-0.23205,-0.43618,0.12497,-0.181,0.17609,0.25266,0.27817,0.83933,-0.10444,-0.18106,-0.28316,-0.46178,-1.2266,-0.12985,0.50776,0.15057,0.17614,-0.61452,0.7117,-0.002565,0.048402,0.022913,-0.25758,-0.181,0.50765,-1.6345,1.1966,0.58414,-0.15563,-0.10458,-0.99729,-0.28319,0.53307,0.17605,-0.078812,-0.002271,0.099632,-0.58912,-0.1301,0.60953,-0.18111,0.38002,1.0941,-0.20625,-0.33393,0.20167,0.12516,-0.028139,-2.4253,0.048494,0.227,0.60955,0.099559,0.15059,-0.002405,0.38009,1.1454,-1.456,-0.92067,-0.002693,0.35442,-0.028042,-0.43602,0.048458,0.63515,0.50796,0.15084,-0.079057,-0.58925,-0.38521,-0.66562,0.20143,0.66072,0.25262,-0.10441,-0.5125,-0.1044,0.27827,0.76273,-0.13007,0.53295,-1.1759,-0.53818,0.43121,0.63542,-0.33401,-0.078972,0.15041,-2.0682,-0.84417,1.1452,0.9666,1.0687,0.1506,0.35458,0.023059,-0.79294,-1.3031,0.71161,0.073935,-0.15557,0.22697,1.7316,-3.0626,-0.30841,0.91581,0.53326,-0.6656,-0.51268,0.099436,0.63512,0.073922,-0.6402,-0.2575,0.20167,0.63532,-0.027809,-1.2012,-0.33413,0.60962,0.27806,-0.13016,0.022986,-0.002399,0.27821,-0.02784,0.81385,-0.078928,-0.33416,-0.4362,-0.1811,0.43095,-0.46147,0.27821,1.0688,0.099601,-1.2012,0.12496,-0.53811,-3.0626,-0.84412,0.68599,1.3492,1.3748,0.60962,0.71163,-1.558,-0.89513,-0.23204,0.76264,0.50765,0.96655,-2.0936,-0.53798,-0.56353,-0.51258,-0.35946,-0.28298,0.5331,0.53306,0.55857,0.073892,-0.13005,-0.002381,0.4313,-0.51254,-0.48699,0.50782,0.86469,0.022925,-0.20664,-0.053678,-0.35957,0.023243,0.81375,0.2271,-1.048,0.099448,0.30334,-3.1138,0.53304,-0.33407,0.91563,1.5788,0.68626,-3.2922,-0.63998,0.099534,1.0941,0.17609,-0.46158,0.68605,0.38006,-0.66548,-0.18091,-0.30855,-0.53804,-0.81866,-0.35961,0.35457,0.48213,0.12492,0.38007,0.66081,0.32921,0.27817,0.023201,-1.0737,-0.6147,-0.028078,0.35456,0.1504,0.48209,0.074111,0.12504,-0.487,-0.61435,-0.53803,0.27802,1.1197,2.2674,-0.589,-1.4324,-0.15732,0.32721,-0.36133,-0.20832,-0.4361,0.09943,0.32898,0.099406,0.32902,0.60963,-0.28297,-0.94611,-0.28292,-0.33389,-0.078861,-0.13003,0.38006,0.35454,0.83916,0.15052,-0.43606,-0.15543,-0.20647,-0.76761,-0.6911,0.17605,0.48211,0.96668,2.1398,0.8136,-3.6747,-0.81858,0.3036,-0.48704,-0.51265,0.30349,1.3747,0.66067,0.71167,-0.053415,0.40568,-1.0227,-0.18102,-0.002461,-0.94608,0.27805,0.27808,0.38008,0.63508,0.17606,-0.30851,-0.15545,-0.81866,-0.81864,0.30367,1.3239,0.68615,-0.053549,0.40553,-0.46167,-0.86969,-0.48702,-0.15555,-0.33408,1.7828,-0.97138,0.81376,0.60957,1.4512,0.60952,-0.079106,0.25257,0.15057,-1.7367,-0.51252,-0.23196,0.76273,0.60963,1.0431,-0.2575,-0.79309,-0.38503,-0.13,-0.053421,-0.94604,0.53317,0.6606,0.53298,0.40558,0.023065,-0.6146,-0.30846,-0.35956,-1.0227,-0.23198,0.43112,1.2983,0.58414,1.1453,1.0178,-0.86968,-1.5328,-0.51257,-0.43598,-0.61453,0.45661,0.60965,1.0687,0.15049,-0.30859,-0.35959,-0.12999,0.074118,-0.84411,-0.10449,-0.15543,0.71176,1.6298,3.4405,-3.4707,-1.4052,-0.81876,-0.89524,-1.6602,0.55872,1.4514,1.1707,0.27795,0.7116,0.099473,-0.69108,-1.2522,-0.43596,-0.97153,-0.46152,0.76265,0.83916,-0.12986,0.68615,0.76263,-0.33401,-0.81861,-0.33401,-0.18115,-0.74201,0.38016,0.22712,0.8646,0.66053,0.43103,-0.20653,-0.48708,-0.002399,-0.4359,0.66076,-1.0227,-0.10457,0.17602,0.9922,0.38016,-0.20647,-0.41053,-0.84416,-0.99716,0.023047,-0.10437,0.17606,1.0178,2.038,0.50768,-0.81869,-1.2013,-1.2777,-0.76766,-0.18105,0.15059,0.43108,0.83911,1.7064,0.58417,-1.6345,0.02298,0.30363,-1.6603,-1.9152,0.76264,0.71159,1.1706,0.6862,0.58412,1.2981,-1.8387,0.55852,-2.1703,-0.64007,1.1964,2.2931,0.81368,-0.079148,-0.053604,-1.1247,-1.0737,-0.33395,-0.28294,-0.10444,0.53313,0.73717,0.68615,0.73711,0.12502,-0.46154,-0.30847,-0.66558,-1.1247,-0.2065,0.63523,1.3748,0.89016,0.55863,0.68604,0.27799,-2.3998,-0.56361,-2.0937,0.27814,1.4002,2.6243,-2.2466,0.60959,-0.64017,1.0434,-0.283,-0.58919,-1.7877,-0.38499,0.63511,1.3492,-1.2265,0.76266,0.073953,-0.71662,-0.25746,0.6098,-1.2267,-0.64011,0.38007,0.96672,0.43107,1.0432,0.30353,-0.66562,-0.84412,-0.10445,-0.99713,-0.86959,0.73718,-0.30859,0.89031,1.5278,-0.13001,-0.99725,0.12501,0.94122,0.17605,0.40545,-1.2521,0.17609,0.48208,1.0686,0.099521,0.17603,-0.053495,-0.33399,-1.1246,1.0176,-0.35946,0.91569,-1.1499,0.8392,0.099424,-0.41069,-0.79314,-0.46154,-0.078941,0.04858,0.50766,0.40558,0.2015,0.43108,0.048469,0.073892,-1.7876,-0.33388,-0.053353,0.48225,0.40558,0.40546,0.81362,0.60955,-0.002583,-0.4871,-0.58903,-0.56355,-1.4052,0.43127,1.2217,1.7572,-1.7366,-0.76744,0.73709,0.43101,0.32904,-0.69112,-0.58905,0.50772,0.83904,-1.558,0.50763,0.83913,-0.07907,-0.74218,-0.84409,-0.38501,-0.23196,-0.35949,0.43117,2.1653,-0.078898,-0.99693,0.22702,-0.41063,-0.18105,0.048536,-0.078959,0.30363,0.60963,0.89015,-0.027974,0.048476,-0.053549,-0.8696,-0.89512,-0.41047,-0.46145,0.48228,0.89016,0.91561,-1.2776,0.83914,0.40551,0.17597,-1.3796,-0.15549,-0.25751,0.48211,0.60964,2.9303,-3.0371,0.6861,0.78808,-0.28307,-1.2011,-0.25759,0.81354,-2.2719,0.60972,1.2217,0.37997,-0.48703,-0.028042,-0.43606,-0.027882,-0.53809,-1.0737,-0.33396,0.78827,0.99224,0.45653,0.27792,0.99227,-0.30847,0.023072,-1.6857,-0.94609,0.73721,0.58409,0.43098,0.48204,1.2728,0.45653,-0.30861,-0.69103,-0.61449,-1.1246,-0.25746,0.38011,1.8592,0.37994,0.43116,1.5532,1.2219,-3.8533,-0.89516,-1.0738,-0.5382,0.89,-0.84389,1.0178,1.0942,0.25251,-0.61458,-0.41051,-0.56351,-0.79311,-0.002443,0.35471,0.58408,0.32904,1.0687,0.2781,-0.69113,-0.027969,-0.74199,-0.99717,-0.56358,0.48214,1.0942,0.45661,0.32907,0.48207,-0.46159,-1.1502,0.023108,-0.23196,0.35459,-0.053397,0.048598,0.099528,0.99207,0.32905,2.8282,-1.1501,-1.762,-0.20652,0.20152,0.38015,0.12505,0.32904,0.76263,1.1962,0.022974,-0.63999,0.073995,-1.8387,-0.23198,0.32902,0.53311,0.20154,0.83918,0.53313,0.048592,-0.74211,-0.99718,-0.53801,0.55879,0.6607,0.6606,0.17597,0.45658,0.048525,-0.38506,-0.53807,-0.76764,-0.56358,-0.027931,0.099608,0.40564,0.7881,0.45654,0.45654,-0.48697,-1.1246,0.25255,0.99209,-1.5836,0.32912,1.0687,0.81364,1.1707,-0.6656,-0.7932,1.2471,-1.5581,-0.84411,-0.20646,0.50765,0.78812,1.5533,1.1708,-0.74204,-1.2778,-1.0227,-0.51258,-0.28296,0.53326,0.94127,0.50758,-0.79319,0.89011,0.22704,-0.79312,-0.6656,-0.51255,0.099577,-1.507,0.35468,0.81365,0.91559,0.86458,0.60957,-0.89506,0.023005,-0.53801,-0.79307,-0.078977,1.1707,0.27808,0.20158,0.96664,0.099497,-1.1246,-0.20656,-0.25759,-1.7366,0.48204,-1.762,0.45662,0.76263,1.3492,1.2218,-0.079008,-1.2778,-0.43608,-0.7931,-0.48705,-0.02798,0.68615,0.73721,1.5024,0.0485,-1.0482,-0.56355,-0.28292,-0.5125,-0.12999,0.94133,0.125,-0.41072,1.4513,1.4768,-1.9151,-0.35957,-0.66557,-0.43612,-0.35956,0.38011,0.63518,1.2217,0.86475,-0.33407,-1.1757,-0.30854,-0.23188,-0.48703,0.023023,-1.2009,0.20157,0.2525,1.9357,-0.51259,-0.58914,-0.23197,0.023047,-0.33396,-0.027895,0.63521,0.45652,0.58402,1.0433,0.48214,-1.0737,-0.48706,-0.53798,-0.86959,-0.33399,0.89015,1.5277,-1.915,0.55856,0.50756,-0.20657,-0.18108,-0.33406,-0.51253,-0.2319,0.50767,1.1452,0.3801,1.3494,0.58411,-0.66565,-0.58909,-2.0937,-0.99716,-2.7567,-1.1245,1.3747,0.43103,0.86463,0.50747,0.073995,-0.02798,-0.35954,-0.30854,-0.18094,-0.20616,0.30353,0.2015,1.1963,0.76267,-0.51267,-0.94619,-0.9207,-0.94607,-0.58907,0.2526,1.2473,0.76263,0.71162,-0.002528,-0.3086,-0.28292,-0.30841,-1.0481,-0.25756,0.50757,0.32898,1.0432,1.1453,0.68617,-1.0736,-0.48711,-0.76755,-1.0992,0.58405,1.8592,-5.5872,0.12502,1.0941,0.86456,0.38011,0.20155,0.2271,-1.1247,-0.41051,-0.13007,0.94125,0.60966,0.63518,0.45666,-1.4053,-1.4053,-0.74209,-0.74207,-0.10439,0.63523,1.3748,0.63511,1.0432,0.12504,-0.33402,-0.28297,-0.23203,-0.46164,-1.0991,-0.02798,0.43107,1.0176,0.27819,-0.58898,-0.56356,0.12494,0.53312,-1.2777,0.20163,0.22706,1.0687,0.73712,0.89027,0.25248,-3.369,-0.97164,-0.25748,-0.35945,-0.43598,0.4056,0.6606,0.78816,0.81364,0.60967,-0.66563,-0.38502,-0.64006,-0.64002,-0.33401,0.099564,0.32905,0.35456,0.96673,0.76267,-0.56354,-0.23202,-0.41053,-0.8441,0.27797,-2.5781,0.91568,1.0687,0.91561,0.81357,0.55861,-0.61458,-0.4616,-1.0227,-0.18097,1.0433,0.55881,-0.13004,0.55859,-0.18108,-0.74215,-0.23193,-0.30847,-0.66553,-0.07891,0.58417,0.5586,0.81366,0.38002,0.073965,-0.74215,-0.15541,-0.53805,-0.71657,-0.33397,0.66067,1.0943,1.0942,0.58402,-0.79304,-0.58916,-0.74214,-0.18101,-0.10458,-0.76743,0.30364,1.0432,1.1196,2.5478,-1.2011,-0.15554,-0.23203,-0.12994,-0.86962,0.32901,-1.4815,0.6606,0.38005,0.89015,0.58411,-0.002534,-0.6656,-1.0227,-0.25737,-0.35947,0.43115,0.63513,0.63515,0.81368,-0.28309,-0.56361,-0.69111,-0.43601,-1.1502,-0.43599,0.63516,0.81368,1.1452,0.89009,-0.86952,-0.053451,-0.002503,-0.20656,-0.58912,-0.86956,0.96676,1.1962,-0.15543,0.99215,0.63502,0.099473,-1.0991,-0.56353,-1.0991,0.73706,-0.25744,0.99215,-1.9152,1.0688,0.78819,-0.15551,0.15059,-0.61455,-0.86963,-0.9207,-0.10456,0.91571,0.38009,-0.027969,0.86474,-0.053476,-0.53806,-0.97167,-0.79313,0.71184,0.38013,0.38006,0.15049,1.2217,0.35454,-0.84415,-1.4817,-0.078959,-1.6857,0.48206,1.7318,-1.5325,0.8136,1.1962,0.48209,-0.46159,0.58398,-0.86952,-2.1957,-0.46152,1.1452,0.73728,1.7827,-0.79304,-0.1046,-0.56363,-0.89516,-0.15542,-0.43596,-0.23193,0.022986,0.27803,0.71165,0.99222,0.048512,-0.43605,-0.25748,-0.48705,-0.84414,0.60984,1.0433,0.17604,0.022937,0.60953,0.53297,-0.69113,-1.8387,-0.1045,-0.28302,0.2781,-0.053348,1.7573,0.73715,-1.0735,1.6296,0.45649,-2.2468,-0.58905,-0.053464,0.35467,0.50763,0.78807,0.86461,0.43107,-0.43616,-0.61463,-0.58903,-0.18091,-0.99709,-0.33393,0.27809,0.40557,0.7627,0.94123,0.53305,-0.53803,-0.15541,-0.35956,-0.97174,-2.4763,0.94127,1.3238,0.78813,1.4768,0.43106,-0.46161,-1.1503,-1.0481,-0.76761,0.30364,-0.078843,0.96669,0.71163,0.94114,0.50754,-0.35955,-1.0991,-0.002503,-1.8386,-0.48695,0.15054,1.0177,0.50753,1.2727,1.8848,-0.18099,-1.6857,-0.84419,-0.9462,0.20144,0.50762,-0.25724,1.4769,1.2217,-0.20666,-0.53817,-0.20641,-0.33402,-0.99715,-0.58905,0.60968,0.99222,0.12513,0.6352,0.38008,-0.38514,-0.97171,-1.6348,-0.58903,0.12516,1.0942,0.25263,0.60965,1.0942,0.15054,-0.76764,0.176,0.63506,0.25262,-2.0937,1.0941,-1.6599,0.073989,0.89016,0.86456,-0.28314,-0.66566,-0.10447,-0.25743,0.94142,0.17609,0.48209,-0.38513,0.09951,-0.10454,-0.9972,-0.53803,-0.64007,-0.38494,0.099668,0.6352,1.3748,0.89018,0.15048,0.58405,0.099491,-1.1756,-1.4817,-1.0482,0.022998,0.40561,1.5023,0.32912,1.0687,1.4257,-1.2521,-0.84406,0.048469,1.0175,-2.4506,0.38014,1.0177,1.3237,1.6298,0.40549,-0.79322,-0.20638,-0.28289,-0.64001,-0.66553,-0.078996,0.32905,-0.51269,0.20149,0.7117,0.074111,-0.30848,-0.10441,-0.69105,-0.18095,0.53314,1.0943,0.227,0.48204,0.17599,-0.51258,-0.84407,-0.51254,-0.28304,-0.027998,1.1197,-0.92039,0.023084,0.2781,0.50753,-0.41058,0.60955,-0.84405,-0.43607,0.15051,2.0887,-1.4559,0.83933,1.0177,0.27794,-1.1759,-0.84418,0.023059,-0.64007,-1.2267,0.73725,1.5024,0.96674,0.12496,0.099503,-0.58908,-0.97166,-0.07891,-0.30845,-0.58905,0.099546,0.86468,0.60963,0.68613,0.3545,-0.58912,-0.66552,-0.30846,-0.35946,0.048525,-0.1554,1.2472,0.25255,1.6042,-0.1555,-1.4306,-0.053525,-0.20653,-1.4562,-0.84402,0.96669,0.76266,0.58409,0.96669,0.66065,-0.15546,-0.94614,-1.1247,-1.0226,0.048585,0.15059,0.7117,0.89021,0.40557,-0.13007,-0.4616,-0.20645,-1.1502,-0.48701,0.17617,1.1454,1.0687,0.60962,0.099461,-0.2066,-0.84419,-0.66561,-0.56355,-0.79306,-0.41052,0.48214,1.1963,0.7882,1.4767,0.099601,0.329,-1.2776,-0.46157,-2.2977,0.073995,1.3237,1.0942,0.55862,0.66058,1.1197,-0.20652,-1.2012,-0.56353,-0.25742,-0.43598,-0.10445,0.60963,0.40558,0.40561,0.25254,-0.48711,0.048634,-0.334,-1.6859,0.35473,0.71171,0.86466,0.32903,0.68613,0.4311,-0.20649,-0.28298,-0.76763,-0.8186,-0.43601,0.68622,0.58411,0.50758,0.83921,0.15056,-0.25757,-0.43603,-0.23202,-0.43606,-0.25746,-1.201,1.5787,-0.51249,0.53311,1.2472,0.45667,-0.48711,-0.35957,-0.81863,-0.61459,0.27812,0.48206,0.4311,0.89026,0.12506,-0.6146,-0.84414,-0.69107,-0.86965,0.73736,0.89027,1.0432,-0.00254,0.38007,-0.1811,-0.027956,-0.078928,-0.71662,-1.2267,-0.51257,0.43115,0.78819,0.66062,0.53309,-0.053506,-0.02795,-0.28298,-0.25747,-0.64007,-0.43598,-0.20644,1.1962,0.15052,1.1707,-0.86957,0.30351,-1.1756,-0.487,-0.35955,-0.25748,0.53308,0.68608,0.66062,0.45656,-0.002516,-0.48705,-0.25741,-0.28295,-1.4563,-0.7676,0.91578,1.0688,0.53308,0.48209,-0.30865,-0.81869,0.12515,0.12513,-1.0737,-0.48701,0.45666,0.53311,0.43107,0.73714,0.17597,-0.30855,0.22716,-0.84401,-1.1247,-0.81856,0.17611,0.1506,0.81363,0.53314,1.1706,0.45652,-0.41053,-0.99704,-0.51258,-0.25757,1.4768,0.7117,0.48209,0.55857,0.76266,-0.2065,-0.58907,-0.74213,-0.86962,-0.7931,-0.33409,0.45659,1.4004,1.5789,0.35456,-0.46157,-0.84412,-1.0737,-0.48702,-0.38502,0.35463,0.76268,0.43107,0.76267,0.48206,-0.002503,-0.66557,-0.64007,-1.3286,-0.30849,0.099601,1.0177,0.45654,0.78811,0.4056,-0.56351,0.37995,-0.71656,-0.61452,0.2781,0.9412,1.1962,-0.589,0.43105,0.48203,-0.079063,0.02298,-0.35957,-0.48706,-0.15546,0.55869,2.0126,1.1453,-0.2066,-0.51267,-1.3033,-0.41051,-0.30843,-0.66555,-0.81863,-0.10447,1.1452,0.27798,0.86477,0.89016,0.38008,-0.10449,-2.3487,-0.84407,-0.053476,0.63514,1.3492,1.1196,-0.436,1.4256,-3.9043,-0.20642,-1.099,-2.1192,0.32902,0.8392,0.78816,1.0687,0.89007,0.83901,0.048487,-1.0481,-0.027882,-0.86957,-0.35944,0.55881,0.68619,0.048469,-0.028078,-0.58916,-0.10448,0.12516,-0.18099,-1.4819,-0.64009,0.78821,1.3239,0.73719,0.63512,0.1505,0.48199,0.25255,-2.9352,-1.2267,-0.23201,0.7881,0.40568,0.71166,1.1707,1.5787,-0.86963,-0.28313,-4.1338,-1.2776,-0.181,0.53312,1.4003,1.3237,-0.15552,0.48206,-0.002461,-0.41053,-0.69108,-0.92062,0.40577,0.17609,0.15048,-0.07907,0.53311,0.48213,-0.15548,-0.35951,-1.3798,-0.8186,-0.46151,0.5332,1.3494,0.78816,0.38003,0.40558,-0.13001,-0.56358,-0.51253,-0.6146,-1.1245,0.73715,1.3747,-0.66545,0.76265,0.45656,0.15041,-1.3541,-0.79312,-0.33403,-0.74211,0.99229,1.3493,0.86467,-0.23193,0.81357,-0.10449,-4.2614,-0.9972,-1.2522,-0.38505,1.2473,1.7829,1.1962,0.48202,0.66065,0.17609,-0.86963,-1.6604,-1.2012,-0.69107,0.83933,1.4003,0.40556,0.43107,0.30354,-0.61462,-0.9972,-0.20647,-0.43597,0.38021,1.0433,-0.1554,-0.89512,1.4767,1.0176,0.40546,-1.7622,-0.079033,-0.43607,-0.283,0.099613,0.99218,0.25256,0.83919,0.25254,-0.53807,-0.23197,-0.5125,-1.1501,-0.64008,-0.05347,0.73719,1.2473,0.76265,0.17601,-0.20652,-0.89519,-0.94617,-0.23192,-0.58909,0.048555,0.96676,1.0943,0.81366,0.71167,-0.71665,-0.99718,-0.64009,-1.0736,-0.38499,0.43119,0.58412,1.3237,0.40565,0.17601,-1.6092,0.073977,0.48206,0.50749,-2.6546,0.68613,0.38011,1.0942,1.0176,0.83905,0.35443,-0.9716,-0.28303,-0.43598,0.25271,0.20159,0.12497,0.8137,1.7575,0.17597,-1.0483,-1.5838,-0.58906,-1.2777,-0.23193,1.3239,0.6096,-0.53822,1.2728,1.4769,-0.15549,-1.0227,-0.79314,-0.69105,-0.30849,0.32917,0.76263,0.8646,0.1506,-0.02798,-0.28303,-0.56358,0.12497,0.074013,-1.558,-1.2775,-0.30843,0.91562,1.4257,1.0431,-0.10455,-0.79316,-0.56351,-1.0992,-1.0736,-0.20649,1.4514,0.76268,1.3238,0.76269,-1.0993,-0.56355,-1.0227,-0.15542,-0.74209,0.074038,0.22701,0.83919,0.78814,0.73718,-0.33404,-0.46155,-0.51253,-0.64006,-0.48703,1.2728,0.60959,-1.6346,0.89011,0.099528,-0.10453,-0.81854,0.50756,-1.2266,-0.053513,0.38011,2.2672,-1.5071,0.48211,1.2981,0.099619,-0.30851,-0.002479,-0.61458,-0.66558,-0.12999,0.96675,0.68615,0.38006,0.40553,-0.33404,-0.38499,-0.51254,-1.3032,-0.61457,1.0944,1.1708,0.43104,0.27803,0.17601,-0.25752,-0.7676,-0.38499,-0.23194,-0.28294,0.27808,0.60962,0.073995,0.8136,0.22704,-0.33405,-0.10449,-1.8896,-0.58904,-0.027962,0.048536,1.1197,0.96669,0.60963,0.66062,-0.20652,-1.3541,-0.81857,-0.38502,-0.28293,0.048531,0.48208,0.78818,0.94121,1.0943,-0.41065,-1.8643,-1.0482,-1.1757,0.30369,1.3494,0.66063,0.45653,-0.15562,0.40561,0.1506,-0.078923,-0.7676,-1.4053,-0.6145,0.96677,0.58416,0.38011,1.1197,0.68606,-0.94617,-0.92059,-0.053439,-0.76755,-0.25752,0.76263,0.76264,0.50757,1.0941,0.94107,-0.46156,0.30351,-2.2721,-0.5125,0.55867,0.71159,0.83912,0.50751,0.68608,0.50758,-0.078966,-0.74208,-0.94615,-1.1502,-1.4052,0.68626,2.0126,0.78821,0.20151,-0.10457,-0.15549,-0.51256,-0.69109,-0.79311,-0.20653,-0.027956,1.1708,1.1707,0.55859,0.17599,-0.10451,-0.46156,-0.33404,-1.5072,-0.58905,-0.053446,0.94119,0.83916,1.0177,0.8646,-0.25749,-0.66553,-0.23196,-1.3032,-0.51254,0.53318,0.78814,0.73713,0.40561,0.2015,-0.64015,-0.30847,-0.078935,-1.0481,0.15052,-0.53801,0.71173,0.91566,-0.283,0.278,-0.053525,-0.41045,-0.28297,-0.10449,-0.30851,-0.053378,0.81369,0.43106,0.12499,1.0177,-0.25753,-0.48707,-0.56345,-0.94617,-0.64011,-0.43593,1.3747,0.83911,-0.35945,0.27801,-0.38513,-0.05347,-0.20646,0.40575,-0.28294,-0.002491,0.45661,-0.1556,-0.23209,0.22706,0.1506,-0.41055,-1.3798,-0.64,0.15068,0.20156,0.50759,0.50758,0.58409,0.48209,0.27815,-0.41052,-0.89515,-0.46167,0.099595,-0.86941,0.5076,0.58398,1.2217,0.78821,-0.56353,-0.38507,-0.66568,-1.6857,-0.64007,1.3747,0.12517,0.91562,0.89013,0.58413,0.125,-0.41049,-0.41052,-0.69114,-0.33399,0.60965,0.63511,0.53311,0.073959,0.66062,-0.12997,-0.25744,-0.58904,-1.3543,-1.3032,0.40567,1.0943,1.0433,0.81366,0.30351,-0.002448,-0.20646,-0.89518,-0.64007,-0.30852,0.20159,-0.053384,0.43107,0.86464,0.76259,-0.56359,-0.079021,-0.23199,-1.7622,-0.002423,0.91569,0.60968,0.78814,0.30355,0.83909,-0.58908,-0.2065,-0.74205,-0.43604,-0.43604,0.20158,0.9157,0.50757,0.35458,-0.5127,0.2271,0.40576,-0.64003,-0.71656,-0.30844,0.32917,0.8137,0.048458,-0.61476,0.048427,-0.28306,-0.30849,0.099657,0.17617,-0.20645,0.074026,0.3036,0.17604,0.58416,0.53307,0.074013,-0.48714,-1.7622,-0.66545,0.38011,1.0432,0.86466,-1.099,0.38003,0.6861,-0.053513,-0.30858,-0.64004,-1.5071,-0.66549,0.074093,1.1708,1.0687,0.66062,0.40553,-0.079026,-0.51258,-0.41054,-0.84411,-1.1246,0.48216,0.45656,1.1708,0.68608,0.07394,-0.64019,-0.33399,-0.66552,-0.38497,-0.43598,0.074087,0.96674,0.68613,0.35455,0.22699,-0.33409,-1.3286,-0.053464,-0.41055,-0.89509,0.55867,0.83917,0.73708,0.074008,-0.74198,0.35454,-0.15548,-0.25748,-0.028018,-0.79307,-0.79297,1.1962,0.78816,0.22707,0.83912,-0.38508,-0.61457,-0.33401,-0.3595,-0.79308,-0.41055,0.40558,1.2728,1.4514,0.81368,-0.66562,-1.3288,-0.9972,-0.46153,-1.1757,0.15058,1.3239,1.6299,1.1708,0.176,-0.48708,-0.92067,-0.71661,-0.436,-0.2064,0.5332,0.66064,0.22703,0.5076,0.68607,-0.35959,-1.7622,-0.53805,-0.20649,-0.41055,0.45658,0.71166,1.0177,-0.15542,-0.002558,0.38009,0.48221,-0.078972,-0.71665,-0.84412,0.099588,0.53312,0.43106,-0.028042,0.76271,-0.33399,-0.51255,-0.76761,-0.84411,-0.58904,0.25262,0.45658,0.68615,1.7575,1.3748,-0.48711,-0.79313,-0.81862,-1.4053,-1.4818,0.32911,1.6554,0.99222,0.63511,0.15046,0.15057,-0.30849,-0.76757,-0.86961,-0.66556,0.22713,0.20159,0.45658,0.78811,0.04858,1.3236,-0.2065,-2.8587,-0.74208,-0.58908,0.81365,1.0687,0.76258,0.60961,1.2728,-0.181,-0.76763,-0.56358,-0.71658,-1.0736,-0.15546,0.63516,0.58413,0.60965,0.53311,-1.0228,0.15065,0.35473,-0.6401,-1.0737,0.09957,0.63514,0.83915,0.66065,0.27806,-0.28303,-0.64008,-0.30848,-0.56359,-0.1045,-0.18098,-0.027882,1.3493,1.0942,0.50751,-0.43609,-0.99708,-0.74208,-0.30858,-0.46154,-0.6655,0.63518,0.89018,0.94115,0.17608,-0.028018,-1.4307,-0.078935,-0.12991,-0.61454,0.4822,0.53312,0.6096,-0.51271,0.5076,-0.027969,-0.53804,-0.053402,-0.51254,-0.61454,-0.1045,0.81368,0.83919,0.81368,0.43106,-0.38508,-0.64008,-0.61457,-0.35949,-0.53801,-0.027907,0.53312,0.40555,0.58412,0.66063,0.07402,-0.30854,-0.30854,-0.58904,-1.9151,0.35461,0.94119,0.76257,0.86465,0.76261,-0.33418,-0.51243,-0.5126,0.12507,-0.053464,-1.3794,0.074002,0.55854,0.71165,0.40557,-0.10455,-1.4563,0.023121,0.20171,-0.12987,-0.56364,0.96669,0.48209,0.53312,0.17602,-0.18108,-0.48699,-0.078935,-0.97152,-0.8951,-0.10449,0.45656,1.6044,0.78818,0.12494,-0.64015,-0.61459,-0.53803,-0.71654,-0.283,0.12513,1.0687,0.9157,0.35461,-0.38498,-0.76766,-0.38509,0.22713,-0.02798,-0.61462,0.25256,0.86471,0.40555,0.91575,0.22705,-0.43608,-1.5328,-0.86961,-0.30844,0.15071,0.50773,0.45658,0.30351,0.68611,0.66065,0.3036,-0.48705,-1.0992,-0.94617,-0.64006,0.32913,0.96674,0.76266,0.71164,0.50759,-0.15549,-0.46153,-0.20652,-0.6146,-1.4051,0.58409,0.17616,1.9102,-0.53798,-0.61451,0.43098,-0.10453,-0.79305,-0.53808,-0.79311,0.50769,0.48209,1.0687,0.78819,0.40559,-0.5126,-1.2777,-0.84411,-0.46148,-0.18097,-0.027962,0.71171,0.55858,0.68612,1.1198,-0.23205,-0.9462,-0.71658,0.15066,-0.5635,-0.002503,0.60962,1.0688,0.20155,0.27803,-0.23204,-0.79311,-0.66556,-0.6146,-0.76756,0.30363,0.60966,0.99219,0.3036,0.099546,-0.30856,-0.48706,0.12502,-0.002485,-1.1755,-1.3795,1.0942,0.83919,-0.002534,0.89021,0.30359,-0.12999,-0.53807,-0.61457,-0.79308,-0.002454,0.43108,-0.33412,0.58416,0.4311,-0.33406,-0.15543,0.074179,-0.56355,-0.6911,0.43119,0.94124,0.40553,0.099454,0.86471,0.099559,-0.53806,-0.84412,-0.84413,-0.94613,0.25265,0.7372,0.5841,0.25255,0.45658,-0.053519,-0.53806,-0.43602,-0.66553,-0.30849,0.20157,0.83922,0.83919,0.048567,0.32905,0.048512,0.1506,-0.48701,-1.1502,-1.8133,0.12507,1.3493,1.2472,0.81365,0.12497,0.022986,-0.10444,-0.6401,-0.79309,-0.8186,-0.053446,0.43112,0.83917,0.99223,0.43107,-0.35958,-0.61459,-0.46152,-0.64004,-0.51249,0.35465,0.8392,0.91562,0.78806,-0.92046,0.074044,-0.46159,-0.86962,-0.71657,-0.33412,-0.12994,0.17611,0.71163,0.6606,0.8137,-0.079033,-0.43607,-1.5836,-0.283,0.15064,0.35465,0.73718,0.81366,-0.053525,0.099491,-0.4616,-1.0227,0.71182,-0.48703,-1.7368,-0.94622,0.99226,1.6554,0.94123,0.63512,-0.5381,-0.66563,-0.74214,-0.41051,-0.35944,0.099588,0.71165,0.48208,0.3801,0.6351,-0.10452,-0.86961,-0.38502,-1.2776,-0.15551,0.76262,1.1707,-1.15,-0.58896,0.81357,-0.35974,0.074002,0.76277,-0.027969,-0.71659,0.074069,0.68609,0.45662,0.07416,0.48218,-0.027974,-1.3288,-0.9972,-0.58911,-0.48702,0.58426,0.86469,0.73713,0.2015,0.32902,-0.15554,-0.002363,-0.23193,-0.66558,-0.33401,0.30363,0.60966,0.55862,0.25257,0.45659,0.048518,-0.89512,-0.66562,-0.56355,-0.66558,-0.46157,0.96678,1.2728,0.96663,0.83914,-1.4306,-1.0991,-0.053513,-0.23202,-2.0682,0.58412,1.0177,0.71157,0.68611,0.71165,-0.25757,-0.89515,-0.538,-0.20642,-0.35951,-0.46145,-0.38511,1.1453,0.58409,1.2218,-0.027993,-0.33401,-1.0737,-0.71659,-0.69108,-0.02798,0.43108,0.53309,0.89022,0.60961,0.22709,-0.53804,-0.61455,-0.74209,-0.94614,0.048592,0.71168,0.76265,0.76262,0.60957,-1.2522,-0.25746,0.17608,-0.38504,-0.97158,-0.15543,0.83913,0.78813,0.58412,0.83909,0.2015,-1.7622,-0.48699,0.50757,-0.7165,-0.002369,0.91575,0.73711,0.12496,0.15048,-0.18105,-0.74214,-0.28295,-0.38499,-0.33393,-0.12995,0.96676,0.68611,-0.13012,0.81368,-0.027956,-0.20646,-0.84415,-0.28298,-0.81859,0.30365,0.50762,0.55858,0.68614,0.12497,-0.4871,-0.66558,-0.43602,-0.41055,-0.35944,0.89029,0.96676,0.3291,0.45654,0.66059,-0.58903,-0.81866,-0.30858,0.25256,-1.0991,-0.18097,0.40558,1.0942,0.58424,0.96671,-0.28303,-0.53812,-0.56354,-0.92067,-1.0737,0.6608,1.1198,0.35452,0.278,0.73714,-0.10451,-0.58907,-0.71659,-0.33396,-0.64004,0.15061,1.2473,0.89018,0.048476,-0.30858,0.074038,-0.35951,-0.53805,-0.28301
0.78838,0.25274,-0.64011,-0.89512,-1.7622,0.022925,1.0177,1.9103,-0.18089,-0.64017,-1.7369,0.68617,0.86481,-0.002491,0.022986,1.2726,-0.23203,0.22706,0.45654,0.431,-0.64006,-0.76753,-0.63996,0.12525,0.53333,0.40555,0.12491,-0.41072,-0.53826,0.12508,0.12514,-0.25748,-0.53804,-0.69106,0.12515,1.0178,0.6096,0.53307,0.25247,-0.028011,-0.64011,-0.12993,-0.94608,-0.28301,0.074038,0.30358,0.99224,0.53307,0.58407,-1.5072,0.048512,0.2526,-0.92062,-1.4052,0.68624,1.4769,0.15051,-0.41059,1.2471,0.45645,-2.2722,-0.56335,-0.7676,-1.1248,0.43115,0.96673,0.83914,0.55855,0.37998,-0.25752,-0.078904,-0.1554,-0.74211,-0.84409,0.35472,0.76273,0.78819,0.55858,0.20145,-0.23208,-0.71665,-1.0227,-1.5072,-0.61455,0.7372,0.78828,0.099644,1.1197,2.803,0.023054,-0.92075,-0.94615,-0.56364,-0.51255,-0.74196,0.71166,0.50762,0.1505,0.58402,0.099503,0.48221,-1.0991,-0.81862,-0.66561,0.09957,0.73718,1.2982,0.4056,0.12494,0.048531,0.73733,0.32923,-0.99721,-1.0737,-0.027925,0.20152,0.099466,1.0177,0.8901,0.35447,-2.9352,-1.2521,-0.6656,-0.51257,0.6607,1.6809,1.4512,-0.15555,-0.28307,0.38,-0.46153,-1.0991,-0.078917,-0.28307,0.048573,0.94133,0.30362,0.073977,0.20153,0.20143,-0.69096,-0.46155,-0.6146,-0.64009,-0.43609,0.78816,0.66061,0.58413,1.1453,0.023023,-0.7166,-0.66558,-0.30846,-0.97163,-0.48707,0.63516,0.91572,0.78821,0.35451,-0.23207,-0.23195,-0.66556,-0.027944,0.3545,-2.0426,0.55861,-0.46146,2.5223,-1.0734,-0.1555,-0.35961,-0.48714,-0.6402,-0.078972,-0.97151,0.63529,0.71159,0.2525,0.86463,0.099559,-0.9207,-1.0227,-0.15537,-0.1808,0.53326,1.4259,-0.079088,-0.51274,0.40551,0.15054,-1.4564,-0.15543,-0.41049,-0.41047,0.6863,0.58413,0.25252,0.45656,0.6861,0.20156,-0.12993,-0.74209,0.023121,-0.89508,-1.0227,0.71164,1.6553,0.81371,-0.69114,-0.7677,-0.20649,-0.2065,-0.79309,-0.35962,-0.35943,0.78829,0.86467,0.83919,0.94114,0.20159,0.35462,-0.53815,-1.4307,-1.5838,0.32918,1.3749,0.45661,-0.13007,0.50754,-0.48697,0.15063,0.048696,-0.94617,-1.4053,-0.15547,0.63512,0.63509,0.76263,0.53308,0.099619,-0.38491,-0.20655,-0.79312,-0.79313,0.60963,1.7573,0.45668,0.53307,-1.9406,0.53312,1.4256,-1.9917,0.38009,0.12499,-0.99716,0.099485,-0.053622,0.73712,1.9614,1.6299,-1.2522,-0.61454,-0.8441,-1.0736,-0.053415,0.30362,0.81374,0.099491,0.099473,-0.3086,-0.10444,-0.51248,-0.38502,-0.66557,-0.053451,0.94119,0.83917,0.78819,0.48205,-0.46161,-0.30849,-0.10449,-0.66548,-0.38498,0.45649,-3.0117,0.32904,0.89014,1.7829,0.76259,-0.3341,-1.6091,-0.66559,-0.74195,-0.20642,-0.028042,0.073922,1.4003,0.63504,0.048438,-0.28298,-0.12986,-0.86963,-1.1246,-0.10442,1.63,1.0433,-0.002521,-0.28319,-0.69122,-0.66559,-0.12993,-0.35948,-0.15534,0.17612,0.30355,0.58412,0.48204,0.27799,-0.46164,-0.33402,-0.53799,0.48214,-0.30851,-0.35942,0.53331,0.60962,0.73698,-0.86969,-0.28301,-0.027827,0.17616,-1.3033,-0.30853,0.2526,0.81365,1.1962,0.96669,0.3035,-1.0738,-0.97168,-0.4615,-0.51248,-0.18083,0.55875,0.73724,0.94122,0.12496,-0.25763,-0.079026,-0.30852,-0.53807,-0.74212,-0.58904,-0.078935,0.63514,0.83921,0.71166,1.0687,-0.079093,-1.0482,0.048616,0.32917,-0.92051,-2.3742,-0.48705,0.73721,0.38007,0.63507,0.17593,0.073953,0.25263,-0.41036,-0.30856,-0.69111,0.35458,1.3748,0.99224,0.7627,-0.46164,-1.3033,-0.46151,-0.51252,-0.84406,-0.15544,0.53312,0.60961,0.86469,1.1197,0.12504,-0.6911,-0.99718,-0.58906,-0.48697,-0.10447,0.43107,0.58413,0.32905,0.53305,-0.00251,0.45664,-0.027969,-1.3796,-2.0683,0.25263,1.1963,0.96673,1.2472,0.86457,-1.9407,-0.20659,-0.00243,0.099546,-0.12998,-0.12999,0.48215,0.66057,-0.02809,0.55863,0.2271,-0.18095,-1.1757,-2.0684,-0.97158,2.0892,0.78824,0.50756,0.40559,0.15048,-0.38512,-0.38503,-0.5891,-0.5125,-0.38496,1.1964,0.83914,0.32906,-0.56365,0.45651,0.17595,-1.4817,-0.15545,-0.07877,-0.12993,2.1652,-3.0117,0.25254,1.3747,-0.76743,0.76264,0.94115,-0.41063,-0.61465,-0.46153,-0.94595,0.099503,0.94127,0.78815,0.48209,-1.2013,-1.1757,-0.71656,0.58427,-0.76757,-0.12995,0.53315,0.50756,0.60968,0.63515,-0.053555,-0.181,-0.58908,-0.46156,-0.66552,-0.078984,0.40568,0.71158,1.1452,0.96665,-0.92052,-0.86958,-1.3797,0.25259,0.22702,0.12507,0.27808,0.83919,-0.15541,1.7316,-0.53798,-0.92067,0.02301,-0.28305,-0.053402,0.68608,0.022986,0.5331,0.43111,0.71171,-0.027969,-0.25745,-0.589,-1.0992,-0.89512,-0.33402,0.38011,1.5279,0.9412,0.35456,-0.28309,-0.38517,-0.46156,-0.38502,-0.74196,0.32919,1.4002,-0.94603,0.60959,0.53311,-0.46157,0.09951,-0.20647,-1.813,0.22699,-1.15,0.43107,-2.3742,0.074026,1.7063,0.58403,-0.25754,-0.46165,-0.18101,-0.2574,0.3292,0.5842,0.073989,-0.20658,0.66065,-0.4871,-0.25743,-0.1044,0.12519,-0.94611,-0.79319,-0.053592,0.40561,0.6606,1.4002,-0.79309,0.40561,-0.35946,-0.86952,-0.002423,0.023078,0.30355,0.78812,0.12506,-0.078966,-0.25758,-0.079057,0.20159,-1.099,2.5478,-0.41041,-1.4816,0.55852,-0.002503,0.9921,0.78809,0.20152,-0.078972,-1.0992,-0.43595,-0.12995,1.1708,-0.002528,0.32909,1.2473,-0.53815,-1.6346,-0.10443,0.099564,-0.97155,0.17614,0.40558,0.073873,0.30346,1.7319,0.30358,-0.92074,-0.81865,-1.4817,-0.86957,0.38017,1.5278,1.2217,-0.38499,0.63514,0.40555,-0.74211,0.09943,-1.0991,0.2272,0.86461,-0.10431,0.3036,0.12499,0.55853,0.20147,-0.48713,-0.28305,-0.002405,0.023108,-0.28298,0.89029,0.76266,0.073984,0.40558,0.099577,-0.84413,-0.38503,-0.99718,-1.8387,-0.027962,0.78817,0.38003,1.3494,1.8339,0.66066,-0.79319,-1.2268,-0.1555,-0.51249,-0.79318,0.43106,0.81368,0.58424,1.8849,-0.5636,-0.48716,-1.0736,-0.23209,-2.3488,-0.61448,1.3748,2.3441,1.1962,0.86456,0.048427,-1.3288,-1.1757,-0.97163,-0.61447,0.53326,0.50765,0.023072,0.099515,0.99216,0.17605,0.22705,-0.97155,-0.81863,-0.84408,0.2271,0.91564,-0.30841,-0.18101,0.022907,0.83919,0.86493,-0.79309,-0.97176,-0.76758,-0.02806,0.30347,0.76263,1.4005,1.1452,-0.6657,-1.3287,-0.56361,-1.0226,-0.56347,0.25264,-0.13007,0.32905,0.27811,1.8595,1.0944,-0.97177,-0.48719,-1.7368,-1.4307,-0.23199,1.5789,0.76275,0.76258,0.83912,-0.25759,-0.81858,0.99205,1.0941,-2.2977,-0.053421,0.66061,1.6553,1.0177,0.68606,1.0178,-0.002418,-1.3033,-1.3287,-1.5072,0.048573,0.35461,0.53311,1.0688,0.55857,-0.078947,0.27812,-1.1502,-1.4563,-1.3543,0.38017,1.1709,0.89024,0.7116,0.89016,0.32904,-1.4308,-0.15552,-0.89502,-1.3287,-0.38499,1.2219,1.4513,0.83911,-0.35954,-0.13002,0.63492,-2.3997,-1.0735,0.04861,0.20157,1.4513,1.5023,0.68613,0.50757,-1.0483,-1.3288,-0.86961,1.0945,-0.20628,-1.1502,0.71163,-0.53805,0.53308,1.0687,0.20152,-0.15549,-0.18094,-0.41051,-0.30843,0.023103,0.20152,0.53302,-0.13012,0.43106,-0.002503,-0.35953,-1.15,0.8392,-0.027944,-0.71638,-0.12994,0.81358,0.50748,0.68598,0.60944,-0.5126,0.048727,-0.46136,-0.53803,-1.7366,2.0632,0.40569,1.5532,-1.1502,-0.28299,-0.15557,-0.18105,0.22714,-0.86953,0.6606,0.83924,-0.25753,0.15054,1.0942,-0.02809,-0.84417,-0.69104,-0.43603,0.09965,0.20162,-0.20665,0.73713,0.35464,1.528,0.15062,-0.002588,-0.84423,-2.6805,-1.4817,-0.3084,1.2729,1.2471,1.1707,1.7318,0.5075,-2.1958,-0.5635,0.35466,-0.25743,0.12518,1.5278,-0.25755,-0.35961,0.43093,-0.10455,-0.18098,-0.41044,-0.46149,-0.53808,0.5587,0.48205,0.96676,1.0178,0.6096,0.40559,-1.4053,-1.5326,0.048604,0.278,-3.3432,-0.51251,1.1452,0.89007,1.4512,0.78816,-0.20651,-0.46161,-0.84414,-3.0117,0.71182,1.0688,-0.33389,0.45654,0.048469,-0.33416,-0.92072,-0.30847,0.60975,-0.86963,-0.4615,1.1198,-0.18105,-0.51264,0.17597,1.8085,0.68624,-0.9463,-1.3287,-1.4561,-0.25745,0.45659,0.76268,0.81363,1.0686,1.4512,0.9155,-4.0063,-0.71651,-0.20642,0.48219,0.63504,0.86449,1.1452,-0.51234,-0.33412,-0.92062,0.12506,0.22704,-1.1247,-0.20638,-0.027974,0.40567,0.35462,0.68614,0.30354,-0.56361,-0.7676,0.099637,0.074204,-0.61462,0.12502,0.96672,0.38006,0.96669,-0.38516,-0.6401,0.20169,-0.56356,-0.79327,-1.5326,0.94117,0.83916,0.83915,-0.69102,0.20153,1.8592,-1.9151,0.17608,0.68612,0.50765,0.30363,-0.33401,0.30345,1.0176,-0.078984,-0.13,-0.41044,-0.76763,-0.46147,0.25268,0.60974,0.48208,-0.30857,0.048384,-0.74228,-1.4562,0.32921,0.58429,0.099657,0.5076,-1.2012,0.022852,0.329,2.1656,0.66074,-0.35957,-1.0992,-1.1757,-0.81859,0.55871,0.50762,0.58407,-0.027944,-0.61457,0.482,-0.28296,-0.25751,-0.58901,0.17604,0.96668,0.45659,-2.9351,-0.30848,0.86455,0.30358,0.35459,0.048494,-0.028005,-0.89517,-0.94607,0.074069,0.35456,0.5076,0.43108,-0.33408,0.023145,0.38025,-0.28301,-0.84412,-1.0736,-0.30859,1.4003,0.94123,-0.15561,0.73712,-0.41061,-1.3796,0.023084,-0.25747,0.099595,-0.41062,1.0687,0.78816,-0.15544,0.22696,-1.3543,-0.43601,-0.66556,0.15067,0.99232,0.66065,-1.2266,0.43107,0.40559,0.45647,-5.001,-0.002546,0.89015,0.45664,0.27804,0.6861,0.76264,1.0687,0.91559,-0.053519,-0.35954,-0.94613,-1.2776,-1.4817,-0.86961,0.76275,1.681,1.4258,0.099442,-0.92073,-0.30851,0.099552,-0.35958,-1.0227,-0.58885,0.2781,0.86464,0.53302,0.76263,0.35456,0.38017,-0.33404,-1.8896,-0.58903,-0.66556,0.074051,0.96667,1.1963,0.3545,0.099485,-0.02795,-0.51265,-1.048,-2.5783,-0.002461,0.81378,1.1707,0.60958,1.0431,0.2015,-1.5326,0.58402,-3.5982,-0.53807,0.22707,0.6861,1.0687,-0.15545,1.4513,0.94118,0.48219,-1.9151,-0.76761,-1.4053,-0.61455,0.73709,0.22702,0.12507,0.53313,0.099546,-0.25756,-0.15542,0.43126,-0.35945,-1.4564,-0.2066,0.96671,1.0177,1.6044,0.099546,-0.56356,-0.69108,-1.5328,-0.71662,0.27812,0.35461,0.78808,-0.30851,0.278,0.50762,0.3036,-0.43598,-0.5634,-0.25747,0.074038,1.6296,-0.05339,-3.2922,0.71159,1.0686,0.1505,0.58405,-1.5071,-0.89509,0.22709,0.074062,0.76261,0.53312,1.0687,-0.20654,-0.61457,-0.66555,-0.64006,-1.0992,-0.07891,0.074057,0.53306,0.023035,1.4513,0.76269,0.15062,-0.25745,-0.71665,-0.94617,-0.89517,0.073984,0.73716,0.5331,0.45658,0.76278,-0.15548,-0.027944,-0.25758,-1.0227,-2.4761,0.55861,0.76258,0.63511,0.91573,0.78813,-0.028047,-0.53797,-0.58904,-0.79304,-0.20647,0.53305,-0.35957,1.0177,0.68615,0.27806,0.50749,-1.4562,-1.0992,-1.2523,0.12511,2.3442,1.1197,0.22699,-0.48723,-0.71668,-0.64011,0.78834,0.023145,-0.7165,-0.436,-0.13005,0.099412,0.68611,1.5024,1.0179,-0.41052,-0.35963,-0.86969,-3.1649,-1.0991,1.2217,1.4512,-0.38494,0.50762,0.227,0.15057,-0.10442,0.20161,-0.38502,-0.38506,-0.1555,0.22702,0.58413,0.20156,0.53317,-1.5074,-0.053372,1.2985,-0.33391,-1.0737,-0.38517,0.022919,0.278,0.22694,0.60968,0.20161,0.12517,-0.18095,-0.38497,0.32908,0.30361,0.83915,0.074069,1.9867,0.38033,-0.74206,-1.1502,-0.48719,-0.97169,1.1706,-0.28282,0.40558,0.176,0.60962,0.63512,0.048567,-0.53799,0.30377,-0.71656,-0.94617,-0.10452,0.2015,0.12499,1.0687,-0.028018,-1.2013,0.71182,0.35472,-1.2523,-0.74211,0.048506,0.71163,0.76268,0.94124,0.81374,0.048518,-0.28315,-2.9099,-0.10454,0.73709,-0.5634,1.0942,0.94115,0.96661,0.30352,-0.28309,-0.48702,-0.25753,-1.0226,-0.027956,1.6553,-0.5888,-0.3851,1.5787,0.074051,-0.89502,0.27817,-0.69116,-1.4819,-0.79324,0.81365,1.7064,0.50754,0.73715,1.1454,-0.46154,-0.99717,-0.58904,-0.9716,-0.027876,0.60972,1.4512,-1.6093,0.71158,0.86461,-0.5891,0.55861,-0.23201,-1.0735,-0.69107,0.1506,1.2217,0.66062,1.3238,0.76251,-2.0173,-0.6145,-0.58907,-0.33404,-1.0735,0.27802,1.1197,0.73721,0.89015,-0.053549,-0.58915,0.55878,-0.30844,-0.94612,-0.48703,0.20158,0.8647,0.48212,0.22704,0.22704,-0.078959,-0.92067,-0.86963,-0.46158,-0.28297,-0.71637,1.0432,0.48201,1.2982,0.43112,-0.28306,-0.002405,-0.30849,-0.74216,-1.5327,0.048555,-0.86946,0.53309,0.78814,0.20152,0.15052,0.17607,-1.1502,-0.8695,0.22717,0.68626,0.22696,0.329,0.63505,-0.10446,-1.3796,0.023157,-0.41049,-1.0227,-0.25752,0.55866,0.66063,0.60954,1.0177,-0.25748,-0.35959,-0.28295,-0.1554,-0.71663,-0.81856,0.43112,1.2982,0.40561,0.43111,-0.002601,0.89007,-1.2009,-1.6345,-0.69104,-0.027987,0.35453,0.55851,0.17595,0.27803,-0.23202,-0.2064,0.17616,-0.12989,-0.86957,-0.92071,0.27812,0.99224,0.45659,0.73711,0.40558,-1.1503,-0.53806,0.48224,-0.97162,-1.4563,1.3749,0.91569,0.60959,0.53311,0.099534,-0.3595,-0.86966,-0.66565,-0.12995,-0.81846,0.71165,-0.23197,0.30348,0.66066,1.0433,0.55853,-0.92058,-1.6092,-0.61465,0.66056,-0.84398,0.58414,0.89015,0.53312,0.66061,-0.56357,-1.3541,-0.027907,-0.9206,0.22714,0.17604,0.227,0.3546,1.5024,-0.46165,-1.0993,-0.76766,-0.12993,-0.8696,0.43123,0.20156,0.4821,0.53312,1.0942,0.30356,-0.28298,-0.79316,-0.56357,-0.81856,0.45662,0.023041,-0.43606,0.94115,0.99221,0.099485,-0.20655,-0.10452,-0.94595,-0.079021,0.43113,0.63512,-0.15545,-0.30853,0.58408,1.7571,-1.0226,-0.30851,-0.38499,-0.69108,-0.002467,0.68615,1.0943,0.53323,0.63509,-1.1758,-1.3799,-1.5839,-0.002369,1.2731,0.60982,0.58416,0.15049,0.022968,-0.10464,0.17606,0.20165,-0.53809,-0.89516,-1.3798,-0.28307,1.3748,-0.35929,0.71165,0.86466,0.35457,0.17597,-1.2521,-0.078984,-0.86954,-0.078959,0.66071,0.89018,1.4002,0.12504,0.25245,-0.86966,0.737,-0.71646,-0.66551,-0.078953,0.40555,0.32899,-0.079093,0.68613,0.50768,1.2475,-0.38499,-1.2778,-1.1757,-0.79303,0.7117,0.94122,0.73715,0.43106,-0.23209,-0.6146,-0.56361,0.099515,-1.66,-0.30843,0.73714,0.96669,0.63507,0.25257,0.86456,-1.2776,-0.10452,-0.56351,-1.0226,-0.33397,0.50765,1.0942,1.3492,-0.30838,-0.71652,-0.69113,-0.99714,1.2471,-4.3634,-0.89506,1.4259,1.3748,0.78808,0.94114,0.22695,-0.76755,-0.18098,-0.38508,-1.5327,-0.35942,1.0688,0.99226,0.55857,1.0942,-0.20658,-0.71664,-0.12995,-0.92067,-1.0481,-0.43599,0.2271,1.2727,0.63507,0.22708,0.074051,-0.38499,-0.66567,-1.0226,-0.61457,-0.58902,1.1707,0.63523,0.71166,0.78817,0.40557,-0.46154,-0.5126,-0.64007,-0.81855,-0.71663,0.53315,0.66069,0.58409,1.3238,-0.99699,-1.0993,-0.53803,-0.30851,-0.94617,0.30364,0.58423,0.91569,0.8137,0.73712,-0.48717,-0.86972,-0.38499,-0.793,-0.97162,-0.53806,0.68613,1.2473,0.89015,0.71162,0.83908,-1.3541,-0.56354,-1.0227,-0.89503,-0.002436,0.78824,0.83912,0.60965,0.60955,0.38006,-0.71662,-0.86967,-0.20654,-0.38503,-1.1244,0.6862,0.73717,1.5534,0.6606,-0.1301,-0.71666,-0.74213,-0.64007,-0.92059,0.17616,0.32912,0.40556,0.22704,1.6554,0.89022,-0.53806,-0.41054,-0.84414,-1.3542,-0.43607,-0.38502,0.63512,0.68614,1.3238,0.45666,-0.002491,-0.53808,-0.7421,-0.89511,-0.30852,0.099595,1.5788,0.68621,0.58416,0.074038,-0.28308,-2.1957,0.53295,-1.9408,0.40565,1.5279,1.4003,0.25248,0.27798,-0.18108,-0.5381,-0.97168,-0.30846,-0.30841,0.048671,0.09957,0.38004,0.78819,1.2218,-0.25756,-0.79314,-0.9462,-0.43605,-0.56354,-0.18096,0.60972,0.96671,0.68615,1.2473,-0.18105,-0.51257,-0.51258,-0.38506,-0.48708,-0.8185,0.1761,-0.12999,-0.20654,1.4003,0.43105,-0.18098,0.40565,0.227,-1.1756,-0.053415,0.15056,-0.053555,-0.028047,0.96669,0.048531,-0.89516,-0.46153,-0.2064,-0.053353,-0.10441,0.48219,0.45659,0.43105,0.60955,-0.15558,-0.71662,-0.7931,-0.51258,-0.66553,-0.3085,0.68619,0.94119,0.25249,1.3748,0.099742,0.25259,-0.51257,-0.79309,-0.69115,-0.76761,0.7116,0.17607,0.43101,0.71158,-0.18091,0.5332,0.074124,-0.25757,-1.9153,-1.3542,0.48215,1.3748,0.55864,0.89016,0.17601,0.2271,-0.92066,-1.2778,-0.99713,0.099668,0.3291,-0.23213,1.3238,1.5789,0.12504,-0.53809,-0.56357,-0.28296,-0.76757,-0.41051,-0.027969,0.68613,0.81367,0.99223,0.022919,-0.48715,-0.46152,-0.63998,-1.2266,-0.20658,1.0942,-0.89493,1.1707,1.4512,0.22703,-1.1502,-0.86962,0.58424,-0.23184,-0.66557,-0.48716,0.40553,-0.3086,1.1453,0.73712,-1.1247,-0.58904,0.3292,-0.7676,-0.53804,0.71173,1.6299,0.22702,0.30347,-0.28309,-0.23198,-0.25744,-0.436,-1.2522,-0.35953,0.43112,0.55862,-0.33421,1.4004,1.4769,0.63501,-0.48717,-3.5728,-0.99721,-0.15556,0.76267,1.9104,1.2218,0.8646,0.25244,-0.89513,-0.66561,-0.56354,-0.86955,0.17614,-0.35943,0.25251,0.25255,0.73716,0.176,-0.48708,-0.23196,-0.53807,-0.76758,0.074136,1.2474,0.45656,-0.35966,0.35451,-0.079033,-0.89518,-0.15545,0.02309,-0.84411,-0.41044,0.48221,0.2015,1.5022,1.3747,-1.15,-0.53803,-0.71664,-1.0736,-0.28313,0.25254,0.048616,0.58415,0.86464,0.96664,0.73709,-0.30849,-0.2574,-0.53803,-1.4818,-0.33396,-0.002552,0.15052,0.55862,1.7064,0.58418,-0.283,-1.4819,-0.76763,-0.69105,0.20164,0.27808,0.40557,0.48208,1.6554,0.63517,-0.38503,-0.81864,-0.48702,-1.0227,-0.64014,0.38009,1.1963,0.73707,-0.79293,0.99213,-1.6856,-0.58904,-0.30851,-1.0737,0.099583,1.4003,0.73714,0.25255,1.1453,0.53309,-0.86969,-0.5126,-0.99711,-1.1756,-0.053415,0.43113,0.71164,0.50758,1.1963,0.27804,-1.2523,-0.64006,0.20168,0.32927,-1.2777,0.40565,0.63511,0.71166,0.63511,0.22699,-0.76766,-0.89516,-0.64007,-0.81855,0.63531,0.81374,0.50758,0.32908,0.63512,0.02295,0.25248,-1.0481,-0.79305,-0.66554,-0.15546,0.99219,1.5533,0.20163,0.71162,0.55848,-0.28311,-0.81857,-0.25745,-0.97165,0.0741,0.60969,0.68619,0.20147,0.43106,-0.15557,0.27815,-0.6911,0.45674,-1.2012,-1.0737,-0.13001,0.60963,1.0432,1.0687,0.38008,-0.078928,-0.69111,-0.53804,-0.51254,-0.51247,0.15055,0.73709,0.50756,0.86464,0.78807,-0.94612,-0.53797,-1.405,-0.51251,0.55867,1.1962,0.78815,0.40556,0.78811,0.45652,-1.6603,-0.76766,-0.10445,-0.18093,-0.28295,0.45659,0.58408,0.35455,0.89021,-0.10457,-0.56358,-0.74209,-0.33396,-0.92061,-0.46151,0.91578,1.1453,0.20155,0.329,-0.18111,0.35468,-0.02792,-0.51257,-1.3798,-0.61457,0.4056,0.48208,1.0433,0.76265,0.35455,-0.35955,-0.81865,-0.51255,-1.3286,-0.76748,0.32908,1.1963,1.3238,1.1452,0.07394,-0.30856,-0.35959,-0.38503,-0.74209,-0.71657,-0.76764,0.94127,1.0178,1.5787,-0.92065,-0.18103,-0.1555,-0.74207,-0.94616,-0.6656,0.63517,1.3493,0.073965,0.91569,0.53307,-0.20651,-1.0735,-0.41049,-0.92063,-0.69108,0.66067,1.5279,0.32904,0.58408,-0.20662,-0.71668,-1.0737,-0.436,-0.07885,-0.53799,0.53317,0.50759,0.66057,0.94111,0.023084,0.099608,-0.0535,-0.002461,-1.2777,-1.6092,0.53312,0.99214,0.83914,0.15059,0.48208,0.4312,-0.38503,-0.41052,-1.0482,-0.61457,0.25254,0.66066,0.30358,0.94115,0.32906,-0.56356,-0.84412,-0.053353,-0.12989,-0.48706,0.32908,0.63511,0.30351,0.35448,0.27822,-0.3851,-0.81862,-0.46157,0.50776,-0.25747,-0.10455,0.53302,0.73717,0.30373,0.50759,-0.18105,-0.027969,-0.25752,-0.81858,-0.46145,0.099521,0.68612,0.27802,0.15056,0.40559,-0.56359,-0.12996,0.55867,-1.7367,-0.25752,-0.28292,1.0687,0.45658,1.0942,0.43106,-0.51255,-0.48705,-0.28304,-0.76758,-0.35946,0.25259,0.5076,0.53312,1.0942,0.43112,-0.76766,-0.61458,-0.56354,-1.1757,-0.078923,0.35462,0.78819,0.25252,0.25248,0.58415,-0.38508,-0.51257,0.099619,-0.58897,-0.28297,0.48208,0.099564,-0.41054,1.0176,0.17596,0.15061,-0.002479,-0.15553,-1.2266,-0.18101,0.1251,0.27815,0.63501,1.1197,-0.28289,-0.69107,-0.53809,-0.46159,-0.74209,0.12509,0.3801,0.63511,0.78812,1.1963,0.099528,-0.56365,-0.7421,-0.41047,-0.84405,-0.33396,-0.1045,0.5331,0.55859,0.99218,0.125,-0.43605,0.25271,-0.053397,-1.5073,-0.43602,0.63517,0.8136,0.48201,-0.66553,0.20152,-0.10446,0.048549,0.55856,-1.1501,-1.1245,0.48211,1.2218,0.58409,0.20155,0.50755,-0.589,-0.3595,-1.0482,-0.51247,0.25264,0.53315,0.78814,0.27803,0.22696,0.32907,-0.74214,-0.86963,-0.69107,0.023181,-0.027907,-0.41059,0.22699,1.5789,1.1197,-0.2066,-0.86969,0.25267,-0.89512,-1.2522,-0.46153,0.43114,0.86468,0.53302,-0.053482,0.45658,0.30361,-0.79305,-0.6911,-1.2521,0.15054,-0.027998,0.63523,2.2929,0.40557,0.53306,0.023005,0.60947,-3.2668,-0.92062,1.6807,-1.7621,0.89031,1.1706,1.4001,0.76246,0.50759,-0.053488,-0.02792,-0.48695,-0.76752,-1.6094,-0.002443,1.63,1.1709,-0.079057,-0.94619,-0.43601,-0.46155,-1.2777,-0.33401,0.40559,0.73715,0.66066,1.3237,0.96666,-0.71657,-0.078977,0.023029,-0.71659,-0.76766,-1.048,0.89021,0.68617,1.2472,0.17597,-0.15552,-0.35955,-0.053488,-0.69107,-1.8641,-0.25744,0.78818,0.58408,0.3545,0.32905,-0.51263,-0.43608,-0.4869,0.023133,1.0179,0.074038,0.22696,-0.15563,0.30353,0.22706,-0.66562,-0.053397,0.04858,-0.97164,-0.25744,0.099583,0.73714,0.5331,1.0687,0.73713,-0.079051,-1.7621,-0.232,-0.7931,0.2526,-0.64,0.78817,-0.1044,0.91562,0.68612,-0.51263,-0.05358,-0.334,-1.9151,-0.61447,0.30353,0.6861,0.38001,0.66077,0.94115,-0.51261,-0.58905,-0.3595,-1.0737,-0.487,0.074038,1.1198,0.66077,0.25249,0.66064,-0.053476,-0.6656,-0.7166,-1.1247,-0.71658,0.30364,1.0433,0.96673,0.8136,-0.25763,-0.002558,-0.053525,-2.5272,-0.64008,0.12505,-0.30839,1.3748,1.1197,-0.25741,0.38007,-0.46165,-0.41051,-0.71652,-0.99713,-0.28297,-0.18101,0.55862,0.96674,0.66064,0.86471,0.35465,-0.74212,-1.6094,-1.0481,-0.12989,-0.30853,0.22705,1.0687,1.4769,0.25252,-0.69118,-1.2268,0.2527,-0.71652,-0.33402,-0.10452,0.60964,0.3801,0.76266,-0.20646,1.0176,-1.3031,-0.86954,-0.89507,-0.002405,0.4566,-0.053464,0.73711,1.1452,0.329,-0.56362,-0.74214,-0.64007,-0.35947,-0.43597,0.38022,0.81371,-0.10456,0.50752,-0.079118,-0.18101,0.86486,-0.18092,-1.1757,-1.6604,0.48216,2.2166,0.94122,0.22695,0.099473,-0.41055,-0.64007,-0.79311,-0.76756,-0.61458,-0.07899,0.63514,0.81366,1.2218,0.30363,0.27805,-0.6401,-1.1501,-0.20656,0.22704,-1.6856,1.2982,1.1451,1.0432,0.048506,0.35462,-0.002412,-0.81865,-1.4052,-0.43602,-0.002485,0.89025,0.27812,0.17601,0.32902,-0.46161,-0.18098,-0.23195,-0.69107,-0.51252,1.1198,0.68615,0.58413,0.5841,-0.028042,-0.18103,-0.46151,-1.0992,-0.79312,-0.41048,0.35463,1.2218,0.53312,0.60959,0.048463,-0.25758,-0.61454,-0.66555,-0.56361,-0.66553,0.48213,0.8392,-0.4614,0.81359,0.94116,0.17604,0.074002,-0.92061,-1.4562,-0.23197,0.25256,0.73714,-0.23215,1.5789,0.9157,-0.92074,-0.58906,-0.79312,-1.0992,-0.30843,0.76278,1.1963,0.023054,1.0177,0.12496,-0.71665,-0.66561,-0.12991,-0.41049,-0.25746,0.12503,0.55859,0.66069,0.60962,0.38004,-0.078959,-0.51254,-0.33403,-0.64006,-0.385,0.023096,0.53316,0.66057,0.48208,0.27806,0.12504,0.04858,-0.66557,-1.6348,-0.002326,0.43114,0.30355,0.53306,0.20163,0.40554,-0.1045,-0.74215,-1.2267,-0.66552,-0.027907,0.53317,1.4259,0.66062,0.78813,0.25252,-0.58911,-0.43602,-0.76758,-0.86964,-0.56356,0.25263,0.99224,0.8901,0.074106,0.35456,-0.35954,-0.30854,-0.28307,-0.66555,-1.711,0.7627,1.3747,0.43105,0.30352,0.99217,-0.28305,-0.74211,-0.25748,-0.25748,-0.41049,-0.078898,0.176,0.12495,0.58414,0.86474,-0.43608,-0.86966,-1.1502,-0.69106,0.25274,0.53319,0.43104,0.30352,0.86468,0.76267,0.12512,-0.38499,-0.66558,-1.2523,-0.41047,0.27812,0.48206,0.20147,0.73717,0.48214,-0.18103,-0.94608,-0.33403,-0.99712,-0.38506,0.17609,1.3493,1.4257,1.2472,-1.0991,-0.15556,-0.71658,-1.0991,-0.23196,-0.15548,0.17604,0.81363,0.074013,0.63512,0.38006,-0.41053,-0.2575,-0.15547,-0.41047,-0.053378,-0.25752,0.27803,0.35454,0.73715,0.20147,-0.41057,-0.20644,-0.48704,-0.8441,-0.64006,0.074038,0.76267,0.68617,1.1708,0.27801,-0.0535,-0.10448,-0.46155,-0.76764,-0.92053,-0.61447,0.89013,0.76255,0.89014,0.68613,-0.28302,-0.28303,-0.12999,-2.0936,-0.41046,0.40561,0.81359,0.78813,0.68613,0.48208,-0.69113,-0.71663,-1.3543,-0.027858,0.048616,1.1454,-0.10439,0.12504,0.431,0.50754,-0.53814,-0.86966,-0.51255,-0.7676,-0.20644,0.55872,0.71165,0.55859,0.58419,0.32908,-0.41061,-0.3595,-0.12993,-0.76765,-0.71656,0.074062,0.94115,0.71159,0.60963,-0.38498,-0.64011,-0.43604,-0.12994,-0.51254,-0.66551,0.58413,1.2471,-0.99696,0.94127,0.40555,-0.86977,-0.38505,0.17609,-1.6603,0.58428,-0.1044,-0.33418,0.50763,1.4259,-0.35964,0.27815,-0.48703,-0.38499,-1.2012,-1.0226,0.04861,0.40555,1.0687,0.66062,0.22701,-0.35953,-0.46151,0.22707,-0.94608,-0.23196,-0.053415,0.83915,0.048494,0.91572,0.86468,-0.3341,-0.97164,0.12509,-1.0226,-1.3287,-0.43602,1.2218,0.89014,0.99219,0.40552,0.20156,-0.20647,0.023114,-1.3798,-0.64005,0.30368,0.60963,0.55863,0.38011,0.022961,-0.1045,-0.64008,-0.41049,0.048641,-0.33401,-0.46162,1.0688,0.68613,0.86471,0.15049,-0.64017,-0.43604,-0.078874,-0.41049,-0.334,-0.027944,0.76267,0.63512,0.68611,0.40556,-0.66563,-0.97163,-0.3595,-0.97162,-0.51253,-0.18102,0.91573,2.0634,0.81371,-0.15551,-0.64013,-0.35954,-0.28306,-0.84411,-0.7421,0.20158,0.8137,0.99215,0.94112,-1.1245,0.023059,-0.46151,-0.51252,-0.48705,-0.84417,-0.13,1.2983,0.68613,0.15047,0.32907,-0.25753,-0.41052,-0.23193,-0.76758,-0.8696,0.20161,0.63512,0.50759,0.63515,0.58415,-0.18103,-0.38504,-0.25754,-0.9206,-0.51246,0.17609,0.60968,0.38006,0.22706,0.25253,-0.23205,-0.25748,-0.51252,-0.56358,-0.33396,0.2526,0.71163,0.94125,0.60966,0.023035,-0.15549,-0.74211,-0.43601,-1.1757,-0.56354,-0.002454,1.0433,0.22699,0.68612,0.2015,0.32914,-0.28297,-0.48706,-0.94612,-0.69105,0.15059,0.17599,0.68615,0.94119,0.63511,-0.053519,-0.38502,-0.3595,-1.5071,-0.15553,0.25257,0.94117,0.66056,0.40553,0.83917,-0.181,-0.15549,-0.33401,-0.51252,-1.1755,-0.12995,-0.18106,1.0433,1.0432,0.20151,-0.30859,-0.38508,-0.64006,-1.2522,-0.1554,0.40568,1.1198,0.96669,-0.28312,0.5076,-0.078959,-0.6146,-0.89515,-1.0227,-0.86961,0.12509,0.89026,0.71166,0.99224,0.278,-0.33401,0.0741,-0.71661,-1.0737,-0.51252,0.48218,0.86474,0.35456,0.50757,-0.002534,-0.38513,0.22704,-1.1245,-0.61455,-0.86955,0.048549,0.99215,0.86461,0.86464,0.329,-0.002497,0.048634,-0.76757,-0.81859,-0.71655,-1.0225,0.94122,0.66062,0.68608,0.15046,0.048525,-0.8951,0.17612,-0.41051,-0.84415,0.12512,0.50766,0.48208,0.9921,-0.053476,-0.12999,-0.76761,-0.92062,-0.86965,0.30368,0.71169,0.91568,0.35462,-0.46144,0.94106,-0.002552,-0.71657,-0.76757,-0.18106,0.45656,-0.63992,0.38011,0.63512,0.81364,1.0431,-1.0225,-0.97158,-0.4361,-0.41057,-0.43601,0.35468,0.71165,-0.25761,0.76269,1.1453,-0.53812,-1.2778,0.074118,-0.64003,-0.48699,-0.53814,0.227,1.2983,0.55859,0.25252,-0.002454,-0.027907,-0.12994,-0.92062,-0.53803,0.12506,0.53312,0.38001,0.60962,0.25251,-0.23201,-0.38501,-0.53804,-0.76758,-0.30848,0.5842,0.38005,0.30356,0.63519,0.278,-0.13005,-0.43586,0.074093,-1.2522,-0.86964,0.20147,0.48209,0.45659,0.60959,0.66064,-0.23199,-0.30848,-0.64011,-0.28294,-0.25745,0.58418,0.20152,0.45656,0.83919,0.15057
-0.41051,0.22705,1.0941,-0.10449,1.6296,0.68618,0.1761,-0.30854,-0.84409,-0.10449,-0.81845,0.20155,0.30351,1.0943,0.45658,-0.28309,-0.43606,-0.25744,-0.71659,-0.58902,0.45666,0.20158,0.048451,0.96673,1.2983,0.43109,-0.53815,-0.74214,-0.84403,-0.97155,-0.74213,0.55859,1.4512,0.27817,-0.5635,0.30361,-0.56355,-1.0481,0.17597,-0.92053,1.0177,0.78835,0.99224,0.40554,-0.23218,-0.28316,-0.51252,-0.53809,-0.86964,-0.76752,0.35471,1.1452,0.58408,1.5277,-0.33405,-0.053555,0.58411,-2.1445,-1.4307,-0.33399,0.91571,0.66064,1.3491,-0.027969,-1.4561,0.25245,-0.028054,0.27803,-0.51228,0.66079,-0.25754,-0.079033,0.38001,-0.10455,0.78817,-0.079033,-0.33402,-0.94611,-0.81861,0.55882,0.27823,0.71162,0.20146,0.35453,0.40553,-0.23212,-0.69113,-0.027944,0.074013,0.2527,-0.66544,0.30352,0.48205,0.40561,0.25249,-0.002516,-0.23196,0.099675,-0.7931,-0.58906,-0.43596,0.48208,0.83911,1.0176,-0.28302,-1.1246,-0.79307,0.20153,0.35459,1.3238,1.1961,-2.0427,0.073953,0.30355,1.4003,0.55861,-0.28308,-0.99715,-0.74208,-1.3288,-0.41049,1.6045,1.4769,0.25257,-0.28314,-0.3851,-0.92068,-0.43601,-0.002381,-0.43598,-0.078984,0.20156,0.58408,0.83921,0.73715,0.074033,-0.28305,-0.38501,-0.28304,-1.4306,0.35459,-1.405,2.0889,-1.8386,0.176,-0.38503,0.81351,-0.6401,-0.99714,0.09954,2.0379,-1.4305,0.048438,0.40554,-0.18101,0.048487,0.15059,0.17616,-0.86961,-0.79307,-0.56359,0.023017,0.53315,1.1198,0.81368,0.32913,-0.35948,-1.5838,-0.74212,0.20166,0.30363,0.22705,0.2525,0.32907,0.66063,0.048512,-0.053513,-0.002412,-0.66564,-2.2467,-0.15543,1.1707,3.3384,0.35472,-0.33393,0.38,-0.002558,-0.053592,0.17585,-1.201,-0.25741,0.83928,0.73714,0.30353,-0.23201,-0.20653,-0.71662,-0.48702,0.12504,-0.61446,0.53328,0.074057,0.022992,0.12503,0.30346,0.17599,-0.283,-0.41052,-0.51256,-0.48697,0.43126,1.732,0.048482,-0.3852,1.5532,1.2983,-2.4761,-0.35958,-1.2268,-1.0992,-0.10452,0.63509,0.99215,0.60962,1.2982,0.12499,-1.9406,-1.2776,-0.35952,-0.053372,1.2218,0.99226,0.45662,0.53317,0.30346,-0.15569,-1.6347,-0.92069,-1.0227,-1.66,-0.027913,1.0177,1.3238,0.94122,0.17595,0.37999,-0.30853,-0.18105,-0.74211,0.074136,-0.97127,-0.35954,0.329,0.71156,0.27794,-0.002546,0.48219,-0.027925,-0.46158,-0.28298,0.32923,-0.28305,0.22704,0.63519,0.55861,0.43113,-0.48703,-1.0992,-1.0483,-0.5381,-0.99706,0.048634,0.81365,1.3238,0.78812,0.20152,-0.053458,-0.61455,-1.0482,-0.538,0.1506,1.0177,1.6553,-0.46145,0.35454,0.22701,0.40558,-0.43602,-0.64013,-0.46158,-0.23201,0.68615,0.38018,0.63513,0.278,-0.028011,-0.10453,-1.2775,-0.7676,-0.76755,0.4822,0.81373,0.83918,0.55862,-0.20662,-0.18105,-0.30855,-1.0227,-0.61466,0.048689,0.7883,0.15064,0.12497,0.35454,-0.86964,0.58407,-0.30847,-0.56348,0.048567,-0.18094,-0.51259,0.30354,0.38006,0.48206,-0.10452,-0.33404,-0.10449,-0.25751,-0.74212,-0.23192,0.73726,1.6554,0.99221,-1.6091,-0.20663,0.12483,-2.7057,0.074081,-0.48702,0.25255,0.4821,0.81364,0.099583,-0.69101,-0.76759,-0.43609,0.71157,-2.0426,-0.232,-0.436,0.074038,0.5587,0.58409,1.0178,1.1708,-0.25761,-0.74215,-0.53807,-0.64006,-0.51249,-0.027913,0.30356,0.15047,0.2525,-0.028078,-0.28308,-0.334,0.50775,0.048634,-0.63998,0.91567,0.38008,-1.5836,0.48202,1.2727,0.91556,0.023114,-0.74209,-0.79316,0.60955,-1.3031,-0.053439,0.53306,0.7116,0.66053,0.17594,0.048665,-0.79287,-0.10444,-0.97157,-0.61462,0.86465,0.78814,0.27803,0.40552,1.1198,-0.64011,-0.79315,-0.99718,-0.18089,-0.10442,0.48214,0.45659,0.32905,0.45657,0.048531,-0.28302,-0.3595,-0.64006,-0.20644,-0.30851,0.63514,0.40566,1.3237,-0.86959,-0.81864,-0.41062,-0.23202,0.048555,0.22701,-0.002301,0.58417,0.4821,0.35451,0.50751,-0.51263,-0.079021,0.55858,-1.6345,-0.63992,-0.58903,0.35455,0.66057,0.89014,0.17591,-0.053573,-0.793,-0.23202,0.17614,0.20171,0.55875,0.40561,0.15041,0.27803,-0.25762,0.15045,0.17608,-2.0425,-1.0736,-0.33399,0.60969,1.0177,0.99211,0.83913,-0.053544,0.09951,-0.48704,-0.12996,-1.4306,-0.35951,0.35464,1.3491,-0.30855,0.63514,1.6553,0.48203,-0.58896,-1.3286,1.502,-0.79298,-0.99702,0.584,0.40549,-0.71654,0.9411,1.6553,-0.81847,1.0688,-0.61457,-0.81859,-0.86967,-0.25759,0.073959,0.73718,0.71168,-0.33408,-0.33405,-0.53803,-0.94601,-0.33391,0.40566,0.89021,0.3545,0.25262,0.63507,0.50755,-0.07899,-0.71657,0.074013,-0.53984,1.4766,-0.28294,0.58401,0.71156,0.76262,-0.41052,-0.76767,0.12504,-0.92054,0.099552,0.73721,-0.56345,1.2472,1.2218,0.329,-0.4617,-0.28307,-0.2065,0.20166,-0.46154,-0.053421,-0.53796,0.22701,-0.028042,0.58407,0.63507,-1.1246,-0.078892,-0.25745,-0.69108,0.83912,0.58415,-1.0225,2.1652,-0.61449,0.048506,-0.078996,-0.89501,-0.25759,-0.18103,0.83918,0.66065,0.22705,0.20156,0.55859,-0.23205,0.27803,-1.6091,-0.61453,-0.74211,-0.20649,0.58408,0.73703,-0.30854,1.0688,1.2728,0.099503,-0.43609,-0.41049,-1.2777,-0.10448,0.048458,1.0942,0.83922,0.68613,-0.84411,-0.76761,0.048525,0.58411,-1.9405,0.074026,-0.64008,1.5021,1.7062,-0.53799,-0.078984,-0.18103,-0.15548,0.048536,-0.28302,0.3801,0.20167,0.3291,-0.002491,0.48207,-0.12999,-0.71659,-0.76757,-0.66551,-0.69102,-0.30852,0.3801,0.8136,1.4512,0.78821,-0.1809,-0.46165,-0.027938,-0.33402,-0.94617,-0.25753,0.17603,0.45656,0.58414,1.3749,0.25257,-0.46154,-0.61451,1.0942,0.53295,-4.5163,0.023054,1.7317,0.60955,0.074051,0.482,0.45648,-0.48699,-1.3796,-0.9461,-1.0991,0.38008,1.0942,1.1197,0.94121,0.074081,-0.86965,-0.15547,-0.15547,-0.74206,-0.6911,0.15052,0.40553,0.45653,-0.7165,0.55862,0.074075,-0.33401,-0.283,-0.43601,0.25267,0.58415,1.0177,-0.10459,0.30356,0.96669,-1.0481,-0.74213,-0.5891,-0.58903,-0.10448,2.1142,-0.589,0.27805,0.22707,0.43112,0.3547,0.25259,-0.3851,-0.71662,-0.487,1.2217,0.60962,-3.0117,0.45663,0.76272,-0.4361,-0.46162,-0.53812,-0.69111,-1.2011,0.45659,0.73714,0.35461,1.3238,0.27803,-0.30851,-0.1044,-0.43599,-1.0992,-0.58905,0.22706,1.0177,0.32917,0.91566,0.32902,-1.0736,-1.4308,-0.23201,0.20162,0.58417,0.04858,0.63521,0.53308,0.66058,0.38001,-0.4616,-0.66563,-0.12994,-0.9716,-0.10444,0.55864,1.4259,-0.71639,1.2472,0.12499,-0.81868,-0.53807,-0.13002,-1.2776,-0.027944,0.76261,0.53307,0.533,1.5533,0.53312,-0.6146,-0.74211,0.35461,-2.3997,-0.23193,0.63517,0.58407,0.83916,0.71176,0.50755,-1.5328,-0.56359,0.2271,-0.25741,0.099595,0.023005,0.12498,0.27801,0.60962,0.048536,-0.64011,-0.002503,-1.1755,-0.99695,1.2982,-0.436,0.125,0.63511,0.94115,0.15049,-0.53806,-0.25747,0.22715,-0.66556,-0.35956,-0.15557,-0.61464,0.71172,1.6299,0.25256,-0.48707,-0.64007,-0.74207,-0.81856,0.40559,-0.12995,-0.23201,0.55859,1.3237,0.7626,-0.002516,0.66055,-1.5326,-2.6292,0.02309,0.71165,0.66058,0.3545,1.5022,0.86466,-2.3995,-0.79309,-0.15548,-0.89512,-0.38506,0.50765,0.86466,0.20153,0.32905,-0.23203,-0.20649,-0.23197,-0.35952,-0.41044,0.023096,0.22707,0.8392,-0.002558,0.176,0.12498,-0.078972,-0.64,-0.38498,-0.46157,0.099583,0.83921,0.35456,0.76256,0.73712,-0.53805,-0.76755,-0.28296,0.25256,0.30354,-1.8386,0.17605,0.63511,0.6861,0.91562,0.91551,-1.3031,-0.33401,-0.51247,-1.7111,-0.38503,1.2982,-1.252,0.40561,1.0686,0.55859,-1.2777,-0.76766,-0.43597,0.38018,0.38014,-0.64002,0.22701,0.32899,0.94118,0.86466,-0.15546,-1.4052,0.32907,0.023072,-0.35939,0.48203,-1.0226,0.58407,0.48222,0.66065,-1.2522,-0.56362,0.12507,1.5531,-0.7164,0.66067,0.4056,0.40554,1.1706,-0.20655,-0.89514,-1.0481,-0.053433,-0.18094,0.27815,0.58408,0.40557,0.3036,0.099668,-0.002565,-0.5637,-0.61467,-0.2065,-0.64011,0.38019,1.1198,0.58412,0.09954,0.55863,-0.002503,-0.8697,-0.43605,-0.69111,-1.2522,-0.30833,1.0433,1.7064,1.2217,0.40549,-1.1247,-1.0992,-0.28308,0.73712,-0.46149,-1.354,0.30363,1.9612,0.68609,0.73715,0.35456,-0.94615,1.5276,-0.86952,-0.18082,-0.48704,0.12495,-0.079033,0.58407,0.63523,0.12509,-0.5126,-0.46157,-0.028042,-0.8441,-0.41054,0.58419,0.96671,1.2218,0.48208,-0.13005,0.074093,-0.30846,-1.2267,-1.3797,-0.3595,0.45654,1.0942,-0.10438,0.60961,0.35451,0.71164,-0.76743,-0.15555,-0.74206,-0.86954,0.81361,-1.0734,-0.078972,0.40558,0.27799,0.20152,-0.028054,-0.33399,-0.51247,0.15054,0.3291,-0.053519,0.15057,0.6862,0.32908,-0.41054,-0.53804,-0.69108,-1.0227,-0.15543,0.78821,0.86472,0.38005,0.45657,0.022974,-0.71666,-0.53807,-0.078904,-0.38492,-0.12996,0.09954,0.7627,0.43109,1.1707,0.30352,-1.2266,-0.56363,-1.3542,0.2525,0.27809,-1.3794,0.83917,0.45658,1.0942,-0.053525,0.099515,-0.66561,-0.15546,-0.97163,-0.15546,0.22708,0.3546,0.35461,0.22707,0.78809,-0.35954,0.074062,-2.1191,-1.0482,-0.07899,0.32913,0.35458,0.55858,0.68606,0.022968,-0.002491,-0.35956,-0.41045,-0.33394,0.15064,0.83908,-0.76749,0.15063,0.35461,0.81354,-1.2011,-0.10454,0.78804,-0.6146,-0.10447,0.81374,0.89026,0.53315,0.32905,-0.38516,-0.15548,0.048659,-1.1247,-0.86961,0.074149,0.40566,0.17598,0.329,0.81362,0.074093,-0.84413,-0.18097,-0.18096,-0.51254,-0.053476,0.43112,0.35456,0.63509,1.7063,-0.12998,-0.89515,-0.15555,-0.4615,-0.61455,0.12507,0.6351,1.0176,1.0432,1.0942,-0.053537,-1.8896,-0.76754,-0.86966,-0.41052,0.099521,-0.33397,0.50757,0.96675,0.91572,0.22701,-0.436,-0.46154,-0.97163,-1.1502,-0.35952,0.45666,0.35456,0.27803,1.1707,1.3239,0.7628,-0.51257,-0.64011,-1.5328,-1.2267,0.4821,0.96668,0.60957,1.2472,0.30361,-1.5836,-0.97153,0.68606,-0.691,-0.46145,0.048592,0.76263,0.35455,0.63507,-0.25748,-0.20655,0.048482,0.60955,-3.9553,-0.79298,0.76273,1.3493,0.89017,0.35449,0.07391,-0.84419,-0.56354,-0.58907,-1.0992,-0.027901,1.528,1.1198,0.30352,0.48209,-0.053544,-0.86969,-0.79312,-0.71661,-0.48706,0.099601,-0.46145,0.83919,0.78813,1.0432,0.073989,-0.84408,0.12511,0.17601,-0.58909,-1.3285,0.4311,-0.2065,-0.53804,1.2217,0.40552,-0.64011,-0.25753,-0.41049,-0.63997,-0.2575,-0.027913,0.94118,1.0177,0.60959,-1.0736,-0.41051,-0.33402,-0.7166,-0.84409,-0.18093,0.89026,0.73711,0.81364,1.0177,0.3546,-1.2012,-1.3543,-0.94613,-0.81854,-0.30841,0.7117,1.5023,0.66063,-0.053433,0.35453,-0.25759,0.048494,0.17604,-0.61452,-1.2775,1.0177,1.2727,0.35458,-1.2776,0.15041,-0.079057,-0.51255,0.32915,-0.4615,-0.30851,-0.15552,0.53313,0.94122,1.2726,-0.56366,-0.64011,-0.38503,-0.53803,-0.76761,0.73734,0.38008,0.89019,0.22702,0.58411,0.20155,0.50759,-0.0791,-3.8278,-0.538,-0.13004,0.58413,1.3237,1.1961,0.76264,-1.1246,-0.053537,-0.38504,-0.10439,0.76258,-0.53788,0.38008,0.40555,-0.25757,0.43104,0.17604,-0.12998,-0.33394,-0.41055,-0.79307,-0.48702,0.15056,0.66056,-0.9205,0.60963,0.30354,-0.33406,0.023096,-0.027944,-0.64008,-0.053397,0.86469,1.2472,-1.3286,-0.15557,0.48205,0.099454,0.94119,-0.487,-0.25757,-1.0991,1.2981,-0.58896,0.7116,1.0432,-0.13,-0.38508,-0.71659,-0.20644,-0.28295,0.73731,0.32908,-0.053592,-0.23214,0.15045,0.48214,0.074111,0.099705,-0.6655,-0.94618,-0.86967,-0.23207,0.60963,0.76267,1.6554,0.20154,-0.61461,-0.48706,-0.86964,0.074191,-0.51254,-0.002521,0.71164,0.63514,0.71163,0.48201,-0.61451,0.2271,0.58409,-2.1702,-1.252,-0.35951,0.43103,0.99211,1.4002,0.27808,0.048469,0.048531,-0.41057,-2.5782,-0.84405,0.3546,0.96669,0.83919,1.4514,0.073995,-0.30854,-0.74215,-0.07899,-1.2012,-0.9206,0.12505,0.99226,0.40558,0.71164,0.38009,-0.61465,-0.35951,-0.20642,-0.64003,-0.81864,0.38012,0.78816,1.0177,1.2218,0.48201,-0.79316,-1.5836,-0.53812,-0.1556,-1.6856,1.0432,0.12504,0.30353,1.0178,1.7573,0.20149,-0.76761,0.15053,-1.6091,-0.43606,0.30361,1.2217,0.40547,0.53309,0.53311,0.81383,-0.79312,-1.1502,-1.1757,-0.38502,0.96679,0.7117,-0.15551,0.40556,0.15046,-0.4616,-0.35953,-0.58903,-0.33394,0.53323,0.83924,0.86467,0.099466,0.099497,0.25256,-0.86965,-0.74214,-0.10438,-0.23195,-0.053421,0.12503,0.099528,0.32902,1.0942,0.43104,-0.58908,-1.0736,-0.38501,-0.053397,-0.18094,0.20155,1.1963,0.99212,-0.35954,0.048458,0.45654,0.09957,-3.4197,-0.69116,0.074075,1.0176,0.96675,0.83911,0.73708,0.048525,-0.58906,-0.41055,-1.3796,-0.41054,0.15057,-0.18092,0.66058,0.35456,0.73715,0.83919,-0.10447,-0.385,-0.71659,-0.94616,-0.51258,0.023041,0.32904,0.27806,1.5024,0.55864,-0.69113,-1.0737,-0.66558,-0.71658,-0.20641,0.66067,1.2728,0.71168,0.91562,0.35457,-1.3287,-0.69111,-0.13001,0.3035,-1.9151,0.048555,0.94114,0.86458,1.0687,-0.25746,0.022992,-0.79303,0.55856,-1.7111,-0.58902,0.60968,0.66067,0.68617,0.78812,-0.3086,-0.92066,-0.38506,-0.20648,-0.33398,-0.51249,0.48213,0.89021,0.55862,0.278,-0.30862,-0.61463,0.048616,0.50779,0.048683,-0.64006,-0.43613,-0.00257,0.073977,0.83914,0.5586,-0.64006,-0.12995,0.099626,-1.0226,0.38016,0.43113,0.27805,0.99205,0.48201,-1.8386,-0.28307,-0.25756,0.30361,-0.28298,-0.15546,0.63517,0.50757,-0.538,0.76257,1.9867,-1.5071,-0.078861,-0.28303,-0.71669,-0.38506,0.76263,1.0177,0.20152,0.60959,0.63511,0.48221,-1.2521,-1.2012,-0.71654,-0.12994,0.25261,0.58411,0.099491,0.71166,1.0433,-0.35954,-0.64011,-0.64008,-0.97169,-0.58908,1.0942,0.48218,-2.2466,0.99212,0.86461,-0.20661,-0.027889,0.15062,0.27814,-0.46153,-0.078996,0.20152,0.32904,0.66069,0.12507,-0.1811,-1.1756,-0.38504,-1.4052,-0.53795,0.68613,1.1197,1.2982,0.78813,0.30355,-0.66565,-0.002369,0.099613,-1.15,-0.79309,0.099528,0.40554,0.048482,0.96658,0.40553,-0.35946,-0.33394,-0.38499,-0.43609,-0.46151,-0.002423,0.45662,1.0686,0.86466,0.17604,-0.5891,-0.35958,-0.58905,-0.56353,-0.35945,-0.00232,0.30363,0.43098,0.78807,-0.48712,-0.79313,-0.3085,0.43121,-0.58899,-0.33399,0.45664,0.91575,0.073984,0.15041,-0.28311,-0.35953,-0.18098,-0.027882,-0.66553,-0.12993,0.73723,0.35464,0.4311,0.25249,0.27798,-0.48705,-0.9971,0.12501,0.22697,-2.5272,0.38019,0.63515,0.94116,1.4003,0.58415,0.048512,-0.079026,-1.4562,-2.3998,-0.99712,0.58414,0.76264,0.58407,0.55856,0.48212,0.22709,0.43113,-1.3796,-0.76761,-0.58905,0.43117,0.32903,0.25251,0.50765,0.66062,0.30363,-0.18097,-0.94621,-1.0482,-0.7676,0.63522,0.96674,0.81371,0.2525,-0.15559,-0.283,0.32917,-0.79304,-0.89515,-1.3797,0.023029,1.1962,1.2472,1.4002,-1.2775,-1.2011,-0.05347,-0.027969,0.073995,0.71161,0.02309,0.074075,0.43108,0.94119,0.20153,-0.6146,-0.58905,-0.74209,-0.79308,-0.10443,0.48214,0.40557,0.43108,0.3035,-0.0791,-0.30847,0.17613,-0.41051,-0.69108,-0.43601,0.73723,1.1198,0.60968,0.83918,-0.13008,-0.86969,-0.48708,-0.436,-0.84412,-0.25748,0.38014,0.43117,0.45663,0.6096,0.25248,-0.20653,-0.46157,-0.53804,-1.1246,-2.0426,1.1452,0.89017,1.1707,0.66067,0.45656,-0.7421,-0.13002,-0.38499,-0.69107,-0.58904,-0.38502,0.73718,0.60962,0.5076,0.099503,-0.25753,-0.4615,-0.35953,-0.51255,-0.30848,0.32914,0.76267,0.66064,0.40557,-0.15559,0.023078,-0.15542,-0.46155,-0.56353,-0.38499,-0.10452,0.48209,0.2015,0.83917,0.38007,-0.20649,-0.38503,-0.43604,-0.81862,-0.48697,0.78821,1.0432,0.22707,0.83915,0.30353,-2.6037,-0.35955,0.17605,-0.13005,-0.66555,0.4311,0.73714,0.81364,0.9412,0.25257,-0.58913,-1.4052,-1.1247,-1.0481,-0.25747,0.99234,0.91573,0.32903,1.0687,-0.07899,-0.61462,-0.71663,-0.66562,-0.35946,0.45673,0.17608,0.022961,0.45656,1.1708,0.48213,-0.71665,-0.53811,-0.028054,-2.1701,-0.63996,0.66067,1.5532,0.94107,-1.15,0.7116,0.20155,-0.43601,0.20151,-0.94608,0.12505,0.66066,0.12507,-0.33402,0.58414,0.35456,-0.053568,0.35445,-1.8131,-1.7111,0.58429,1.1453,0.68603,0.40545,0.71159,0.12498,-0.18105,-0.81864,-0.436,-0.8696,-0.69107,0.63523,1.2219,1.2218,0.86471,0.43109,-0.94622,-1.1503,-0.84416,-0.69106,-0.48705,0.30361,1.0177,0.76264,0.60962,0.27805,-0.30858,-0.20649,-0.5124,-0.334,-0.33399,0.12507,0.53309,0.22702,0.48209,0.35453,-0.33406,0.12502,-0.23198,-3.1393,-0.30852,0.53314,1.0942,0.94116,0.86467,0.91567,0.12493,-1.5071,-0.6656,-1.0992,-0.84417,0.91574,0.99234,0.71165,0.71164,0.55866,-0.6146,-0.51254,-0.30851,-1.0482,-0.35948,-0.23205,1.8595,1.0433,0.38003,-0.23211,-0.8187,-0.53813,-0.30856,-0.76757,-0.43595,0.48221,0.50762,0.58411,0.73718,0.89015,-0.20655,-0.92059,-0.64007,-0.84407,0.048567,0.55862,-0.23193,0.8646,0.99216,-0.41055,-0.079142,-0.64012,-0.35948,0.38027,-0.10445,-0.15555,0.35461,0.66063,0.71164,0.022968,-0.58908,-0.79313,0.27822,0.074197,-0.25741,-0.43614,-0.053616,0.2015,0.73715,0.38006,-0.05347,-0.30847,-0.23193,-0.41054,-0.48703,0.15063,0.66065,0.12502,1.1962,0.63512,-0.2575,-0.15545,-0.86962,-1.3287,-0.56363,-0.15551,0.32915,0.40571,1.4513,0.50758,-0.028029,-0.18106,-0.69111,-2.0171,-0.2575,0.58414,0.96672,0.45654,0.40553,0.96675,0.99234,-0.74211,-1.5328,-1.7114,-0.35947,0.66075,0.99227,0.58412,0.32904,-0.053549,-0.181,-0.30851,-0.3595,-0.48708,-0.69103,0.30363,0.73717,0.6096,0.89017,-0.002491,0.023035,-0.078966,-0.10446,-1.1246,-0.15545,-0.41051,0.27796,0.68611,0.45676,0.83915,0.45651,-0.58913,-2.0427,-0.61465,-0.30844,0.17612,0.60963,0.125,0.55858,0.83924,0.73729,-0.35947,-1.2267,-1.1247,-0.51253,0.15058,0.50758,0.71163,0.89019,0.45659,-0.18101,-0.33402,-0.3595,-1.0227,-0.56356,0.17607,0.8647,0.66065,0.50762,0.048561,-0.13002,-0.079021,-0.15552,-1.3286,-0.25746,-0.48695,0.43112,0.78818,0.89007,1.0176,-0.74206,-0.92067,-0.56361,-0.33399,-0.053427,0.35461,0.63509,0.15048,0.4056,0.43117,0.074111,-0.51255,-0.48703,-1.2522,-0.79312,0.76278,0.7372,0.25251,-0.23213,0.60963,0.35466,-0.30849,-0.71662,-1.0737,-0.002356,1.0688,-0.12996,0.2015,0.48206,0.099485,-0.181,-0.35948,-0.35954,-0.53809,0.099601,-0.2319,-0.30843,0.68615,1.1707,1.0176,0.20146,-1.4307,-0.18105,-1.0991,-0.53802,0.27811,0.78816,0.81366,0.89019,0.25263,-0.58911,-1.0737,-0.86964,0.35473,0.27819,-0.18105,-0.053544,-0.10459,0.71163,1.1708,-0.027931,-0.48706,-0.79313,-0.89518,-0.71652,-0.027882,1.2728,0.71162,0.30347,0.99216,0.22713,-0.43601,-0.6911,-0.94617,-0.99712,0.15054,0.96664,0.048561,-0.35946,0.17604,-0.10451,0.17607,0.25261,-0.079008,-0.74207,-0.3085,0.86462,0.94122,1.0177,0.66066,-0.15552,-0.64013,-0.74209,-1.1247,-0.8696,0.12508,1.0943,1.4003,0.55862,0.45659,-0.4361,-1.0992,-0.61457,-0.66559,-0.487,0.1506,1.0177,0.60968,0.68615,1.1197,0.12503,-0.8696,-0.71661,-1.5072,0.17604,0.1761,0.25259,0.048518,0.22715,0.45651,0.12499,0.023054,-0.25748,-0.25748,-0.13003,-0.9205,0.32904,0.66065,0.76266,0.40555,-0.35956,-0.48706,0.2017,-0.7931,-0.69108,-0.002467,0.27805,0.073965,0.8392,1.0688,-0.33403,-0.51258,-0.25748,-0.74202,-0.41047,-0.1045,0.73708,0.53311,0.71163,-0.38502,-0.15553,-0.053519,-0.41052,-0.13002,-0.69105,-0.89499,1.0177,1.4514,1.6299,0.48208,-0.56364,-1.1502,-1.0482,-0.89516,-0.58902,0.17609,0.40558,0.4821,0.76267,0.58415,-0.38504,-0.2065,-0.20646,-0.89521,-0.28303,-0.56332,0.35456,0.35449,1.6044,0.91569,0.023023,-0.84417,-0.71659,-0.56356,-0.58905,0.12513,0.38011,0.5586,0.99213,0.22701,-0.33405,-0.38503,-0.18097,0.35459,-0.25739,-1.3794,0.91562,0.58403,0.53303,1.1197,-0.20652,-0.76767,-0.66562,-0.4615,-0.28294,0.15057,0.2015,0.022986,0.5586,0.66064,0.32915,-0.61452,-0.56353,-0.92062,-0.81862,0.6352,0.86472,0.58411,0.73713,0.43106,-0.18104,-0.79313,-0.8441,-0.81866,-0.30848,0.20161,1.5024,1.0942,0.27805,-0.38507,-0.25759,0.048445,-1.099,-0.81854,-0.43595,0.58413,0.58407,0.6096,0.76253,0.48205,-0.053476,-0.33391,-0.20643,-0.89515,-0.61451,0.40565,1.0432,0.48205,0.32904,0.07394,-0.053488,-0.74211,-0.30844,-0.76765,-0.74208,0.50772,1.2728,0.5076,0.53308,0.22702,-0.30856,-0.5381,-0.79312,-0.4615,-0.12988,0.27814,0.35461,0.27802,0.32903,0.58408,-0.25754,0.099546,0.023084,-1.5071,-0.079021,0.023005,0.023035,0.30356,1.1452,1.2727,-1.5582,-0.69114,-0.38504,0.074038,-0.64001,-0.18102,0.73713,0.73722,1.1453,0.048476,-0.51263,-0.7676,-0.58904,-0.53803,0.07416,-0.10452,-0.25762,0.63512,1.1453,0.63514,-0.25754,-0.51254,-0.86965,-0.64004,-0.436,0.27811,0.50761,0.71165,0.78816,0.86466,-0.20656,-0.64011,-0.69108,-0.74204,-0.25751,0.38016,0.099681,0.94115,0.55856,0.78813,-0.58902,-0.48706,-0.28306,-0.38515,-1.1756,0.15062,0.66071,1.2217,0.58408,0.48208,-0.33405,-0.61457,-0.64004,-0.51252,-0.436,-0.1554,0.27805,0.30353,0.66067,1.5024,-0.002491,-0.89518,-0.9462,-0.89513,-0.58901,0.32912,0.63517,0.71163,-0.079014,0.30356,0.2271,-0.053439,-0.25749,-0.053439,-0.41048,-0.48699,0.50756,0.81357,0.40555,0.35455,-0.10453,-0.232,-0.18098,-1.3541,-0.74205,0.38015,0.22716,0.8136,0.76258,0.3545,-0.18105,-0.69106,-0.25749,-0.51247,-0.12989,-0.10447,0.63515,0.27803,0.73716,0.38006,-0.51261,-0.64011,-0.66556,0.27823,0.023157,0.32918,0.27802,0.35449,0.40549,-0.002558,-0.61463,-1.0226,-0.30845,-0.15546,-0.25741,0.35463,1.0942,0.86467,0.38011,0.023047,-0.20653,-0.46155,-0.027987,-1.1247,-0.79302,0.43113,0.53314,0.63509,0.99217,-0.053402,-0.23208,-0.48712,-0.99718,-0.38502,0.40568,-0.20644,0.94124,0.17597,0.35454,0.048438,-0.41062,-0.25746,-0.1299,-1.0226,-0.53803,0.8138,0.91575,0.8647,0.048494,0.12496,-0.18104,-0.99718,0.15064,-0.18092,-0.51257,0.17595,-0.53803,0.76259,-0.71646,0.89017,0.15049,0.30349,-0.76751,-0.334,-0.30845,-0.18092,0.81363,0.86466,0.48209,0.58408,-0.25753,-0.53806,-0.74209,-0.79309,-0.71651,-0.25755,0.22701,0.86469,1.3239,1.2984,-0.61467,-1.0738,-0.79316,-0.35951,-0.38497,0.22711,0.50763,0.7882,0.38005,0.55861,0.023047,-0.30851,-0.74208,-0.79313,-0.48701,0.1761,0.68617,0.40562,0.50762,0.48207,-0.30856,-0.58905,0.27805,-0.38505,-1.5326,0.048536,0.86462,-0.74201,0.78814,1.2982,0.60953,-1.1756,-1.2522,-0.51259,-0.38501,0.27817,0.55862,0.71165,0.30356,0.60963,-0.33407,-0.51255,-0.64006,0.023133,-0.66556,-0.23202,0.73718,0.40557,0.25253,0.32902,-0.053464,-0.41054,-0.28295,-0.53801,-0.46152,0.30364,0.78818,0.32903,0.43108,-0.10459,0.20159,0.0741,-0.48703,-0.97166,-0.8186,-0.053488,0.43108,1.2727,-0.002338,0.15054,-0.28312,-0.64007,-0.334,0.20163,-0.30845,-0.30845,0.20153,0.022992,0.58413,0.89014,-0.10452,-0.5381,-0.35949,-0.002394,-0.28292,-0.48702,0.38013,0.76263,-0.05358,-0.028066,-0.71668,0.20165,0.099657,-0.38498,-0.58907,0.20163,0.60963,0.63514,0.30353,0.15051,-0.43612,-0.38504,-0.18097,-0.15546,-1.3286,0.27815,1.1197,0.83915,0.53313,0.58408,0.15043,-0.053488,-0.84408,-1.2266,-0.76757,0.50766,0.96676,1.0432,-0.15543,0.71155,-0.51257,-0.56363,-0.30851,-0.99719,-0.30851,0.60974,0.96676,0.66065,0.83918,0.12501,-0.74218,-1.0992,-0.84416,-0.46153,-0.46149,0.099552,1.0178,0.89021,0.76268,0.86469,0.048536,-0.74212,-0.92067,-0.92065,-0.76759,-0.2575,0.55862,0.78819,0.76265,0.86468,-0.15549,-0.53807,-0.61457,-0.10453,-0.69102,-0.053421,1.1452,0.60959,-0.99704,0.30353,-0.053544,0.17607,0.55872,-0.69108,-0.66561,0.43108,0.96672,0.8392,0.63517,0.073989,-0.79317,-0.81863,-0.84413,-0.25744,-0.41049,-0.05347,0.66067,0.45659,0.63513,0.86467,0.1506,-0.89511,-0.15545,-0.20649,-0.51251,-0.28301,0.4311,0.32904,0.40555,0.63514,-0.20652,-0.30851,-0.64011,-0.56361,-1.1755,0.30363,0.68616,0.45656,0.91565,0.50763,-0.53804,-0.35958,-0.20644,-0.12994,-0.79305,0.45666,0.58414,0.91567,0.38004,0.176,-0.38508,-0.48707,-0.81861,-0.69111,0.22715,0.2527,0.68613,0.25249,0.5076,0.68611,0.074057,-0.46157,-0.89518,-0.53803,-0.18091,0.27814,0.53314,0.5076,0.40558,0.32909,-0.10449,-0.53806,-0.35952,-0.48705,-0.81855,0.25262,1.0942,0.22708,0.12509,1.0686,0.55855,-0.28305,-0.5635,-1.0991,-1.2521,-0.15554,0.89016,0.9157,0.9412,1.1707,0.09957,-1.0482,-1.4563,-0.25745,-0.33392,0.32915,0.68619,0.4311,-0.002577,0.27803,0.35463,-0.053446,-0.76761,-0.48701,-0.69106,0.023047,0.66065,0.78816,0.66062,0.48208,-0.28305,-0.334,-0.79307,-0.71658,-0.71664,0.048531,1.1708,0.58427,0.38008,0.329,0.15043,-0.89512,-0.64001,-0.053519,-0.92058,0.32909,1.2216,-0.53803,0.30358,0.53308,0.68617,0.55873,-0.28298,-0.99718,-0.81862,-0.41054,0.17602,0.15045,0.55863,-0.33398,-0.23203,-0.027913,0.35472,-0.46154,-0.48702,0.35464,0.45657,0.43106,0.2015,-0.05358,-0.58915,-0.46154,-0.027864,0.023176,-0.43599,-0.2065,0.4056,0.68611,0.89016,0.20151,-0.25758,-0.20649,-0.53798,-0.61457,-1.0226,0.63514,0.3291,0.86463,1.1451,-0.53804,0.35456,-0.078996,-0.76754,-0.79302,-0.078935,0.63513,0.53307,0.27803,0.38003,0.43109,-0.23202,-0.61457,-0.10443,-0.385,-0.76744,0.48226,0.66061,0.40546,-0.28309,0.099595,0.43111,-0.18101,-0.30855,-0.61457,-0.33395,0.27814,0.68616,0.2015,0.17596,0.45667,0.099632,-0.66566,-0.69106,-0.23194,-0.63998,0.023035,0.73708,0.94111,0.32907,1.4767,-1.5071,-0.46156,-2.5271,-0.028011,-0.07899,0.32907,1.1707,-0.23188,0.89023,0.40557,-0.51257,-0.53809,-0.51258,-0.6911,-0.89512,0.04858,0.50766,0.71166,0.81372,0.30355,0.15059,-0.56354,-0.51256,-0.28298,-1.2778,-0.69118,1.0943,1.2728,0.58412,0.22701,-0.079008,-0.51256,-0.33399,-0.48705,-0.51249,-0.078959,0.53313,1.0177,0.73716,0.25255,-0.1555,-0.13004,-1.2777,-1.6602,-0.43608,0.99212,-1.2265,1.8592,0.074136,1.1197,0.53306,-0.30857,-0.69108,-0.43607,-0.79315,0.2016,0.53313,0.81369,0.66068,0.40564,-0.3851,-0.71659,-0.79309,-0.51252,-0.35946,-0.00243,0.89023,0.60959,1.2473,0.27798,0.099515,-0.51256,-0.56354,-0.56356,-0.76758,-0.66563,0.71168,0.89021,0.81368,0.50763,-0.23205,-0.12995,-0.38506,-0.56358,-0.53792,0.20163,0.55864,0.89013,0.53307,0.50752,-0.84399,-0.48702,-0.46157,-0.89517,-0.20645,0.78824,1.0942,0.048463,0.074002,-0.13006,0.68617,-0.027938,-0.84407,-1.2013,-0.35945,0.81381,0.89015,0.63507,-1.1246,0.329,-0.10448,-0.20649,-0.20647,-0.33401,-0.48705,0.27815,0.53312,0.60957,0.17602,0.76261,0.09957,-0.53807,-0.33405,-1.7366,-0.10443,0.12503,0.50763,0.73709,0.73717,0.81365,0.37998,-1.2776,-0.64006,-1.0992,-0.12988,0.38018,0.60962,0.12499,0.78818,1.2982,0.25256,-1.0736,-0.81862,-0.48707,-1.0481,0.20162,1.0688,0.81362,0.20148,0.35457,-0.71663,-0.027913,0.048634,-0.33398,-0.51254,-0.002467,0.48211,0.27806,0.40554,0.91561,-0.41058,-1.7876,-0.10449,-0.23202,-0.61451,0.074087,1.4512,0.8136,-1.15,0.81363,-0.13006,0.32905,-0.74206,-0.61455,-0.43609,-0.38503,0.5076,0.63516,0.66068,0.4311,-0.41058,-0.7166,-0.41051,-0.25744,-0.35946,-0.43609,0.4821,0.45656,1.1708,1.1453,0.074013,-1.0482,-0.76762,-0.81864,-0.76758,0.15058,0.73718,0.20152,0.38007,1.0688,-0.02798,-0.35951,-0.53803,-0.35953
