0.022998,0.048585,0.20158,-0.181,0.099552,-0.18098,0.35452,-0.15549,-0.48705,-0.10447,0.17603,0.32907,0.6861,0.55861,-0.15545,-0.30847,0.074013,-0.28303,-0.002461,0.023029,0.43112,0.43106,0.25257,-0.71654,0.27803,-0.43606,-0.97161,0.45652,0.96662,-2.6546,0.30363,-0.027925,0.20158,0.099491,0.63514,0.35457,0.35463,-0.18106,-0.51263,-0.181,-0.002454,0.15055,-0.078953,-0.10444,0.023072,0.35463,-0.053464,-0.35956,-0.43609,0.2271,0.17609,0.20159,0.22709,0.099515,-0.38505,-0.28303,-0.027969,-0.053476,0.15055,0.27808,0.3036,-0.28303,-0.53803,0.20156,-0.63999,0.78806,-0.2065,0.73706,1.8082,-4.0572,-1.7621,-0.15548,1.7317,0.89013,0.45653,0.278,0.12501,-0.12999,-0.28299,0.048573,-0.15545,-0.18093,0.53311,-0.38498,-0.64009,-0.20655,-0.35958,-1.2268,-0.15553,0.71177,0.63521,0.76271,0.32912,0.12508,0.023029,-0.23205,0.074038,-0.64007,-0.028029,0.074033,-0.002454,0.074087,0.20155,0.074033,-0.078972,-0.53801,-0.18101,1.4256,-0.28301,-1.8386,0.63509,-0.10439,-0.20649,0.60957,0.38003,-0.20652,0.12507,0.58403,-0.027962,-0.23196,-0.18098,0.12505,-0.027993,0.09957,0.048476,-0.23198,-0.38504,0.1761,0.074093,0.074093,0.048536,-0.07899,-0.28306,0.12504,0.048555,0.12506,-0.46159,-0.078966,0.25262,0.35464,0.38011,0.023059,0.22708,-0.18106,-0.46158,-0.58911,-0.053495,-0.30851,0.15059,0.023078,0.30358,1.0942,0.83917,-0.99703,-1.3796,0.53311,0.43115,-0.28314,-1.2013,-0.079045,0.89016,0.86476,0.60968,0.20155,0.12502,-0.793,-0.23195,-0.12998,-0.38504,-0.28304,0.099528,0.074057,0.30364,0.76258,-0.51254,-0.538,0.048598,-0.20653,0.099552,-0.1045,0.0485,0.099546,0.2016,0.81368,0.074062,-0.69107,0.32902,-0.43602,-0.078977,0.48212,0.63514,-0.15542,0.78806,-0.89504,-0.12996,-0.13002,0.15054,0.023023,0.074002,0.38001,0.63507,-1.252,-0.15542,0.38006,0.38007,0.30354,0.17602,-0.10452,-0.12998,-0.28296,0.40563,0.55867,0.1761,-0.35953,-0.64012,-0.25759,-0.0535,-0.30854,-0.027944,0.38018,0.43117,0.38011,-0.18105,-0.13001,-0.35959,-0.002479,-0.25751,-0.027938,0.074087,0.22707,0.25259,0.27808,-0.35951,-0.3595,-0.027969,-0.64002,0.12502,-0.99713,0.38003,-0.66548,0.023072,0.27806,0.30356,0.074069,0.38018,0.4056,-0.18108,-0.20658,-0.002443,-0.28303,0.38006,-0.002369,-0.10447,-0.02795,-0.334,0.048573,0.20156,-0.6146,-0.20652,-0.12999,0.048536,0.27807,0.073989,-0.10449,0.12507,0.27811,0.074111,0.023029,0.2015,-0.1045,-0.23198,0.81365,-0.33396,-0.23201,-0.079033,0.27798,-0.79302,-0.053451,0.45657,-0.10443,0.4311,-0.25753,0.20158,0.81371,0.3291,0.25252,-2.2979,-0.51261,0.50766,0.12515,0.17611,0.27811,0.27809,0.20157,0.17604,-0.20647,-0.58911,-0.7677,-0.28303,0.22712,0.38013,0.38012,0.25263,0.12507,-0.1045,-0.20653,0.38006,-0.25749,-0.02798,0.20161,-0.002405,0.17608,0.58409,-0.18098,-0.43602,-0.079008,-0.30855,-0.15553,0.099577,0.68615,-0.46159,-0.30849,-0.20643,0.2271,0.25258,-0.053549,-0.02798,0.20156,0.4822,0.50765,-0.13,-0.86971,0.45664,0.2271,-0.15549,-0.1045,-0.18101,0.17607,-0.28303,-0.18103,0.12506,0.63511,0.17624,-0.02798,-0.23206,-0.28306,-0.23203,-0.15549,0.12506,0.074069,0.81362,-0.002454,0.55862,-0.74209,-0.89505,-0.74201,-0.43598,1.6296,-0.81851,0.17606,0.60963,0.048573,0.20158,0.17606,-0.56359,-0.99726,-0.053513,-0.027944,-0.002443,0.43115,0.66075,0.50771,0.15057,-0.66567,-0.28308,0.20159,0.12509,-0.053495,-0.18101,0.30359,-0.053488,0.20161,0.023035,-0.13,-0.35955,0.22706,-0.05347,-0.3341,-0.13001,0.40571,0.30361,-0.13003,-0.10442,0.71165,-0.30844,0.45656,-0.53803,-0.61457,-0.53803,0.22708,-0.00251,0.38008,0.32907,0.43112,0.32903,-0.10445,-0.053476,-0.2066,-0.33405,0.074062,0.074087,-0.12995,0.099583,0.02301,-0.07899,0.17611,-0.027993,-0.05347,0.099601,0.27811,-0.15555,0.22709,0.27814,0.023029,-0.43609,-0.56363,-0.12999,0.023047,0.22711,-0.23204,0.048482,0.30363,0.25262,0.074093,0.45659,-0.58898,0.023023,0.25252,-0.53804,-0.027931,0.099559,0.48204,-1.0736,0.58405,-1.0736,-0.18098,0.48209,-0.10451,0.15054,0.45661,0.17609,-1.0735,-0.079021,0.32911,0.35459,0.20158,0.17608,-0.4871,-0.86972,-0.81866,0.17607,0.68624,0.6097,0.66074,0.38016,-0.43609,-0.86972,-0.33409,-0.078959,0.15056,0.022992,0.12505,0.55871,0.60971,-0.51258,-0.99716,-0.027998,-0.053506,-0.23198,0.27812,0.76264,-0.6655,-0.002418,-0.078947,0.73707,-0.4615,-0.0535,-0.48705,-0.23201,0.53308,0.074044,1.1196,-0.18094,0.53314,-0.25751,0.12503,-0.25753,-0.61465,-0.8442,-0.080812,0.45668,0.25262,0.58422,0.40561,-0.30853,-0.28303,0.074106,0.5332,0.25262,-0.51262,-0.61466,-0.23208,-0.079008,0.43113,0.40562,-0.002412,0.048585,0.099546,-0.33402,-0.20648,0.048561,0.048561,0.73711,0.20155,-0.79303,-0.10447,0.023017,-0.23204,-0.2065,0.60955,-0.74202,-0.078874,0.38016,0.48206,-0.20652,-0.2066,0.3546,0.45667,-0.61467,-0.58914,0.023023,0.30364,0.60974,0.43116,0.25262,0.27813,-0.15552,-0.64017,-0.41054,-0.078966,0.02301,0.25259,0.38009,-0.028005,-0.10452,-0.53807,-0.15551,0.43106,-0.7675,-0.1299,0.25257,0.81362,0.43107,0.25259,-0.28294,-0.20649,0.20153,0.074008,-0.53805,-0.38503,0.91564,0.12509,-0.002461,0.15055,-0.56363,-0.20652,-0.027962,0.074069,0.32917,0.048549,-0.61465,0.074026,0.45658,0.32912,0.22714,0.20158,-0.13002,-0.15553,-0.25756,0.023035,0.20158,0.048512,0.023041,-0.12998,-0.283,0.048531,0.17606,-0.10446,0.38003,-1.4815,0.099559,1.6807,-0.46148,0.22704,-0.078959,-0.13002,-0.38502,-0.10449,0.40558,0.81367,-0.12999,-0.53802,-0.46164,0.15056,0.15059,0.12508,0.20161,-0.053482,-0.053458,-0.23202,-0.15553,0.048536,0.27811,-0.002467,0.17609,0.43118,0.023078,-0.48714,-0.48711,0.048512,0.22702,0.38011,-0.58898,0.30362,0.30355,0.15057,0.12496,-0.38505,-0.61454,0.04858,0.45658,0.074044,1.0686,-1.354,-0.20646,-0.84405,0.12503,0.12502,0.30355,0.55859,0.25254,-0.23201,-0.053519,0.43111,0.4056,-0.20646,-0.1555,-0.23198,-0.10444,0.40569,-0.4361,-0.89522,-0.25758,0.32913,0.30365,0.6097,0.074044,-0.12998,-0.4106,-0.10451,-0.078996,0.27811,0.099559,0.32905,-0.002443,-0.078977,0.023035,-0.23197,-0.38501,-0.028005,0.35456,-0.027969,0.048561,0.6861,-0.23197,-0.69097,0.83905,-0.61452,-0.51251,0.20155,0.6096,0.20159,0.074069,0.22707,-0.027956,-0.58901,-0.2065,0.048512,-0.053513,0.12507,0.15056,0.63518,0.60969,-0.43611,-0.66566,-0.2575,0.2526,-0.18098,-0.05347,-0.18101,0.5587,-0.002467,-0.078977,0.40561,0.12507,0.074051,-0.12997,-0.181,-0.4106,-0.33404,0.17606,0.15054,0.17607,0.074069,0.2526,0.048543,-0.079033,0.6351,-0.028005,-0.79307,1.6552,4.0523,-9.6931,-1.8131,0.20156,1.4001,1.2216,1.0941,-0.079002,0.32904,0.89021,0.43115,-0.38503,-0.51262,-0.97166,-0.3085,-0.053402,0.12515,-0.53806,-0.61463,0.2016,0.40565,0.6607,0.43116,0.074026,-0.46163,0.15055,-0.23203,-0.13,0.38006,0.30357,0.023029,0.09957,0.074062,0.023047,-0.002467,-0.74205,0.073989,-0.41055,-0.053476,-0.64001,0.27811,1.0942,0.48209,-0.002436,-0.79302,-0.66551,0.50754,-0.18107,0.15054,0.30356,0.20159,0.17612,-0.10446,-0.10448,-0.15549,0.02301,-0.43606,-0.86964,0.48218,-0.13003,-0.46164,0.048555,0.78825,0.50769,0.32919,0.48209,-0.002467,-0.30854,-0.43606,-0.30854,0.099546,-0.10447,-0.053495,-0.027993,-0.002534,0.27801,-0.69102,-1.0991,0.099552,0.38008,1.1452,0.15056,-0.74199,-0.8185,-0.18098,0.17605,0.27805,0.27802,0.099521,-0.002467,0.048567,0.48219,-0.027969,-0.69116,-0.46157,-0.002461,0.048573,-0.053439,-0.12998,0.15054,-0.079026,-0.30857,0.22707,0.53319,0.43116,0.048573,-0.2575,-0.43607,-0.053519,-0.027974,0.27809,-0.1045,0.43109,-0.079008,-0.18101,0.43106,-1.0226,-0.13001,0.45657,-0.12995,0.17609,0.83911,0.12509,-0.66547,0.023035,0.12501,0.25252,-0.69102,-0.38503,0.17607,0.4056,0.40563,0.27809,-0.027956,-0.46156,-0.23202,0.2016,-0.28304,-0.028005,-0.38509,-0.13,0.023023,0.35466,0.63526,0.43117,-0.25756,-0.48708,-0.027974,-0.002448,-0.078996,0.7371,0.30356,-0.28297,-0.53801,-0.079014,0.073995,-0.41052,-0.64004,-0.15548,-0.15546,0.43109,-0.35951,0.38014,0.32911,-0.053482,-0.41049,-0.053506,-0.38501,0.048549,-0.10455,0.50763,0.86463,-0.58904,-0.15547,-0.053488,0.25258,0.074051,-0.35957,-0.41058,0.2016,0.38016,0.2781,-0.002497,-0.33407,-0.35954,0.099588,0.22708,-0.027944,0.074075,-0.18098,0.89013,-0.002454,-0.33399,0.12504,0.099485,-1.2521,-0.10451,-0.46157,0.83908,0.099577,0.78813,0.2271,-0.69097,0.27807,-0.002461,0.07402,0.35459,0.32912,-0.48716,-0.56362,0.48211,0.074124,-0.053415,0.48219,-0.078953,-0.20649,-0.15552,-0.71662,-0.28303,0.27808,0.43113,0.27808,0.15053,0.20155,0.048567,-0.20649,-0.30849,-0.53804,-0.25754,-0.18098,0.48208,-0.027987,0.074075,-0.10447,0.81363,0.15059,-2.1701,-0.28306,0.278,-0.69101,0.48215,0.58411,0.38013,-0.02792,0.3291,-0.13,-0.002497,-0.053495,-0.43609,-0.028029,-0.078996,-0.66558,0.2016,0.40564,0.40565,0.20159,0.074081,0.27812,-0.15548,-0.51262,-0.18105,0.074062,0.78813,0.32908,-0.86952,-0.53803,0.38003,-0.25757,-0.10447,0.3036,0.023072,0.60962,0.50761,-0.05347,-0.2575,-0.53801,-0.002497,-1.2521,-0.13002,0.17607,1.1452,-0.18094,0.12507,0.35454,0.023035,-0.002491,-0.079026,-0.38506,-0.02798,0.023047,-0.20652,0.43116,0.27812,-0.027962,0.023059,0.50769,0.17609,-0.79314,-0.28302,-0.002497,0.25257,0.38014,0.15057,0.023054,-0.053513,-0.027993,-0.1555,-0.1045,-0.18101,0.023035,0.12507,0.3291,-0.51244,0.27807,-0.15546,0.55855,-0.30849,-1.6856,0.96656,0.22704,0.89009,-0.25749,0.58414,0.30355,-0.33398,-0.002394,-0.02798,0.074033,-0.053495,-0.20654,-0.35961,-0.027956,0.32915,0.45667,0.1506,0.4312,0.30361,-0.7932,-0.69116,0.099534,0.53318,-0.12999,0.15054,-0.002472,-0.53806,0.25257,0.023041,0.023047,0.074051,0.20156,-0.28303,-0.053464,0.4311,-0.02795,-0.33401,-0.00251,0.12503,0.71156,0.6861,-1.4305,-1.456,0.048567,0.83914,0.53304,0.27803,0.78804,-1.1245,-0.69107,-0.027944,0.38011,0.27813,-0.25759,0.27814,-0.23206,-0.53809,0.023059,0.30364,0.074062,-0.07899,0.099564,0.2781,0.074062,0.22708,-0.38508,-0.25755,0.048543,0.023047,-0.1045,0.22712,0.048549,0.2271,0.17604,0.099559,-0.18099,-0.20651,-0.027974,-0.002491,-0.12997,0.0485,-0.28296,1.5277,-1.099,-1.9915,0.32905,-0.2065,0.58407,0.25256,0.30352,0.45658,-0.12995,0.2781,-0.002436,-0.20652,0.55861,-0.8696,-0.53809,-0.56362,-0.078984,0.50762,0.55867,0.25263,-0.10452,-0.002461,-0.18101,-0.43608,-0.41061,-0.053482,0.023035,0.09957,0.32913,0.43115,0.43112,0.048567,-0.027969,0.023035,-0.10449,-0.2575,-0.28308,0.40555,0.30352,0.048536,-0.002448,-0.12994,-0.25747,0.43109,-0.35949,0.22703,0.023005,-0.002461,-0.10444,0.17607,0.02301,0.38013,0.2526,-0.25756,-0.43607,-0.23203,0.27816,0.38017,0.27809,-0.51265,-0.66567,0.023035,0.4822,0.12509,-0.15548,0.099577,0.023047,-0.18101,-0.13002,0.20155,0.2271,0.3291,0.17607,-0.33399,-0.33402,-0.13002,0.15051,-1.7111,0.48203,0.5586,0.20156,0.12506,0.22707,0.40553,-0.7675,0.20152,-0.69098,0.83909,-0.33404,0.20156,0.15056,0.43113,0.12507,-0.12998,-0.18101,-0.25751,-0.181,-0.078959,0.12505,0.023047,0.32911,-0.18104,-0.30855,-0.18101,0.023054,0.099552,-0.20649,0.15057,-0.13002,0.55867,0.66069,0.3291,-0.28303,-0.25748,-0.027956,-0.079026,-0.35961,-0.46152,0.09954,0.22707,0.5331,-0.078928,-0.30847,-0.18097,0.68604,1.2216,-2.1191,-0.4105,0.22708,0.43108,0.22708,0.4056,0.38011,-0.10446,-0.43607,-0.25753,-0.07899,0.048567,0.023041,-0.078996,0.58417,0.25264,0.17608,0.074081,-0.18101,-0.56363,-0.92072,-0.053495,-0.053482,0.55869,0.30361,0.38015,0.38014,-0.002467,-0.43606,-0.027962,0.048555,-0.15548,-0.43609,0.17606,0.32908,0.30359,-0.002485,0.40558,0.63503,-0.2575,-1.4816,0.68608,-0.027944,-0.63999,0.94109,-0.66551,0.43111,0.55856,-0.18098,0.2271,-0.053513,-0.002497,-1.252,0.27808,-0.15553,0.30363,0.32909,-0.078984,-0.33405,-0.43607,-0.10447,-0.053482,0.27812,-0.61467,-0.1045,0.48217,0.63522,0.45669,0.15056,-0.13002,-0.23201,-0.13004,-0.25756,-0.02798,0.22711,0.074051,-0.10446,-0.18101,0.27805,-0.69104,-0.38503,-0.38506,0.60962,0.86463,-0.41044,-0.7165,-0.38499,0.32907,-0.078977,0.099528,0.09954,0.15049,0.099546,0.099534,0.12505,0.32913,0.2271,-0.15549,-0.30849,0.099608,0.32905,-0.97164,-0.94623,0.023035,0.20158,0.50767,0.43115,0.20164,-0.23203,-0.13002,-0.10447,-0.053495,0.12505,0.074069,0.15057,0.35465,0.40561,-0.6911,-0.86967,-0.28303,0.32907,-0.12995,0.76267,0.73716,-0.86953,-0.078959,-0.61451,0.58405,-0.30849,-0.71655,-0.86955,0.17607,0.71158,0.50761,0.023047,0.12507,0.53311,-0.53804,-0.33404,-0.15547,0.25262,-0.12999,-0.38507,-0.30858,0.40565,0.2526,0.45666,-0.43609,-0.33406,-0.48709,-0.10452,-0.027956,0.35462,0.45664,0.22712,0.17607,0.048567,0.09954,-0.13001,-0.002497,-0.51254,-0.23205,0.074013,0.15056,0.43108,-0.35943,0.35459,-0.997,0.15048,-1.0225,0.63503,-0.15546,-0.18098,0.22708,0.40561,0.40558,0.023121,0.048536,-0.18101,-0.053513,-0.18095,-0.232,-0.13,-0.002448,0.22708,0.27811,0.22706,0.12508,0.17609,-0.71665,-0.8697,-0.002479,0.89029,-0.002497,0.023035,0.43111,-0.053458,-0.10449,0.12505,0.023035,-0.28303,0.25258,-0.41053,0.12507,0.20158,-0.053446,0.20159,-0.20653,0.32904,0.35453,-1.2521,-0.18101,0.12506,0.38008,0.048561,-0.18094,-0.053421,1.0431,0.074038,-0.538,-0.35952,-0.027962,-0.13002,0.022998,0.25257,0.48212,0.32914,-0.053476,-0.56357,-0.002454,-0.23205,-0.30858,0.45668,0.20159,-0.53811,-0.43608,0.45666,0.4822,0.074069,-0.13002,0.023035,-0.10452,-0.002467,-0.027969,0.023023,0.45661,0.074075,-0.002472,-0.30851,-0.28302,-0.15556,-0.053458,-0.002436,0.048536,0.83912,0.81364,-0.33397,-0.89505,-0.25748,-0.002454,-0.053506,0.78804,-0.002454,0.023072,0.35455,-0.053439,-0.35951,0.60958,0.023114,-0.232,-0.38508,-0.69113,-0.079002,0.3291,0.20161,0.17607,0.27814,-0.053482,-0.20652,-0.002479,0.17609,-0.28303,-0.25754,0.15057,0.15062,0.17607,-0.07899,-0.053476,0.38013,-0.053458,-0.48708,-0.3595,-0.002472,0.27805,0.25259,0.4311,-0.2575,-0.25749,0.2525,-1.5071,-0.51255,0.048536,0.35458,-0.43599,0.43108,0.43113,0.22707,0.15051,-0.61449,-0.69104,-0.13001,-0.053495,0.023035,0.2526,0.35464,-0.07899,0.12506,-0.4361,-0.1555,0.048555,-0.002472,-0.28305,-0.053482,0.6352,0.074044,0.45667,0.17608,-0.30855,-0.15552,-0.078972,0.1761,-0.181,-0.13004,-0.078996,0.17606,-0.12995,0.15056,0.86466,-0.23198,-0.89507,-0.028011,0.099503,0.32905,0.45659,-0.23196,1.0176,-0.58897,-0.10445,-0.027944,0.25252,0.048476,-0.33398,0.20157,0.38011,-0.002491,0.3291,-0.18105,-0.89503,-0.20644,-0.053476,-0.028005,-0.12999,0.12507,0.25258,-0.4871,0.25257,0.099546,0.15061,0.17609,-0.053482,-0.33403,-0.002479,-0.078984,0.25254,-0.23199,0.0741,0.20157,-0.027969,-0.078966,0.048506,-0.18098,0.12505,-0.1045,0.048531,0.15055,-0.334,0.38011,-0.74203,-0.079021,0.074044,0.40553,-0.23199,-0.46144,0.55859,0.20158,-0.33394,-0.12999,-0.053464,0.25261,0.12506,-0.28305,-0.35956,-0.28308,0.20157,0.20161,0.074033,0.2016,0.30365,0.074069,-0.46159,-0.18101,-0.25752,0.35464,0.45666,0.17609,-0.18105,-0.23205,-0.10449,0.074044,-0.002461,-0.48706,-0.33401,0.15059,0.48213,0.6351,0.074075,-0.97152,-0.35954,-0.10452,0.25254,0.227,-0.86955,0.2781,0.2271,0.22705,0.83915,-0.12999,-0.51254,-0.053495,0.12507,-0.1045,-0.02798,0.17606,0.12507,-0.23205,0.22708,0.15059,-0.053439,-0.2065,-0.02795,-0.027956,-0.20655,0.2271,-0.053506,-0.38511,-0.25755,0.50769,0.38014,-0.15549,-0.10446,-0.002461,0.074044,0.023035,0.22709,-0.027962,-0.15548,0.15054,-0.15546,-0.027962,-0.13004,0.048487,-0.12997,0.27804,0.35455,-1.7621,-0.33392,2.1907,-2.1191,0.55858,-0.027969,0.25254,0.17601,0.099485,-0.15554,0.48215,0.1506,0.1506,0.15064,0.15062,-0.15549,-0.74215,-0.28302,0.048525,0.074069,-0.079014,0.35462,0.20159,-0.33408,0.20161,0.12507,-0.027993,0.074062,-0.002461,0.12504,0.17609,0.35465,0.25259,-0.28308,-0.69109,-0.28304,-0.38502,0.48204,-0.002423,-0.002448,0.50759,0.22713,0.023072,-0.15545,0.17606,-0.86955,-0.079014,0.022998,0.0485,-0.30847,0.55861,0.4056,-0.28298,-0.18099,0.73709,-0.25751,-0.10447,-0.1555,0.09957,0.074069,-0.1555,0.074026,-0.30856,0.048561,0.68624,0.023035,-0.38503,-0.4871,-0.002485,0.43113,0.48217,0.32911,0.023029,-0.181,0.099577,-0.25757,-0.4871,-0.33405,-0.00251,0.20157,0.48214,-0.38496,0.58407,0.25255,-0.66549,-0.48705,0.099546,-0.69101,0.81362,-0.33392,-0.15549,0.94113,-0.027938,-0.28306,0.023023,-0.18092,-0.25751,-0.23199,-0.13001,0.074069,-0.002448,0.023017,0.09957,0.17609,0.12507,0.35448,-1.3032,-0.48706,0.20157,0.38014,0.43115,0.48215,0.58419,0.22713,-0.20649,-0.15551,-0.38508,-0.51266,-0.25757,0.2016,0.023047,-0.23197,0.22705,0.15056,-0.38499,0.86458,-1.0736,-0.002454,-0.002423,0.22706,0.40558,1.0431,0.22708,-0.35951,-0.66555,0.20159,-0.28303,-0.28306,-0.23201,0.27809,0.048525,0.15058,0.099552,-0.053451,0.12509,-0.05347,-0.25751,0.20158,-0.35959,0.099559,0.40563,0.35464,-0.2575,-0.10449,-0.15551,-0.13,-0.053476,0.074013,0.17604,0.048567,0.12507,0.048518,-0.35952,-0.027956,0.15056,-0.30848,-0.078959,-0.079002,0.63509,0.023084,-0.76752,0.17607,0.40558,-0.30852,-0.15548,-0.64003,-0.027974,0.1505,0.8391,-0.69101,0.074075,-0.13001,0.25262,0.20161,-0.33406,-0.18099,0.048543,-0.25754,-0.027969,0.2526,-0.30858,0.50768,0.40568,-0.1045,-0.002443,-0.25752,-0.18101,-0.002497,-0.15551,0.099588,0.25261,-0.13005,0.023023,0.023054,0.023041,-0.28298,-0.002448,0.074057,-0.2065,0.48208,0.074051,0.50757,-0.76749,-0.385,-0.15549,0.074051,0.278,-0.028018,-1.4305,0.12512,0.20151,0.30355,0.074033,-0.02798,0.55856,0.12509,-0.46153,-0.23198,-0.027969,0.074062,-0.053439,0.50767,-0.15552,-0.35954,0.099559,-0.15551,-0.053464,-0.15555,0.2526,0.2526,0.023035,0.38013,0.099564,-0.002497,-0.20649,-0.13001,-0.30853,-0.33399,0.023035,0.25258,-0.002461,0.40558,0.58408,-0.35952,-0.79305,0.27806,-0.33402,0.07402,-0.56345,0.48209,-0.053482,0.27809,0.3036,0.35462,-0.079014,-0.2065,-0.5381,-0.23202,0.66065,-0.18098,-0.002461,-0.30855,0.22707,0.43118,0.35466,-0.078984,-0.71664,-0.00251,0.17611,-0.23194,0.048518,0.68615,0.074044,0.20148,-0.61457,-0.18094,-0.20646,-0.079026,0.22707,-0.23196,0.35457,0.50759,-0.46147,0.43104,0.83909,-1.0481,-0.41052,-0.232,0.27807,0.38008,0.32907,0.17609,0.35456,-0.18096,-0.35955,-0.43607,-0.18099,-0.15551,-0.10447,0.2526,0.38016,0.53317,0.099559,0.17609,0.048543,-0.56361,-0.71666,-0.33406,0.09957,0.15054,0.32911,0.22713,-0.002436,-0.23203,-0.028011,0.074051,-0.079008,0.17604,-0.23196,-0.18099,0.27806,0.58412,-2.0426,0.71161,-0.053519,-0.35952,0.40554,-0.053488,0.66058,-0.30843,0.099528,-0.078935,0.048567,0.27808,0.27805,-0.25751,-0.10447,-0.81866,-0.4871,0.55871,0.35464,0.25259,0.12505,-0.30855,-0.33406,-0.1045,-0.10449,0.38016,0.22707,0.38012,0.17609,-0.078996,-0.027993,-0.027944,0.17607,-0.18101,-0.25752,-0.283,0.048549,0.35458,-0.2575,0.40557,0.17605,-0.56348,-0.002497,0.15053,-0.33402,-0.436,-1.201,0.17607,0.3546,0.50762,0.71158,-0.35954,1.3236,-1.0481,-0.46152,0.25257,0.35459,0.15055,-0.079021,-0.10447,-0.181,-0.053482,0.38016,0.50773,0.099588,-0.51262,-0.4106,-0.35957,-0.13001,0.27809,0.35462,-0.027956,-0.078953,-0.10447,-0.15553,-0.078972,0.048531,0.15055,-0.027993,0.15059,-0.078953,-0.25748,0.50757,0.12502,-0.13,0.27803,-0.35949,-1.048,-0.76749,0.63508,0.53309,0.09954,0.09954,0.12502,-0.28304,-0.25751,-0.079008,0.20157,-0.053451,0.17609,0.35461,-0.51255,-0.64012,-0.027974,0.30363,0.27812,0.12508,0.048531,-0.028005,-0.0535,-0.33407,0.27809,0.09957,0.15057,-0.1555,0.023072,0.048567,0.12505,-0.002467,0.099564,0.099521,0.55854,-0.15549,-1.0991,0.074013,0.099546,0.35456,-1.048,0.58411,0.76266,0.12505,-0.33402,0.35456,0.50757,-0.48705,0.12504,-0.63998,0.099583,0.074033,0.35465,0.17607,-0.23202,-0.28303,-0.18106,-0.33404,-0.027969,0.48216,0.53318,-0.027993,-0.1045,0.12508,-0.053476,-0.38506,-0.23202,-0.46156,0.15057,0.20159,0.22711,0.12507,0.20157,-0.002472,-0.027998,-0.078972,-0.28304,-0.25751,-0.20652,0.15054,0.43112,0.27808,0.12506,0.048543,0.099521,-1.2521,1.1961,-1.5581,-0.84403,0.25255,0.38009,0.81364,0.3036,0.12507,0.9921,-0.51254,-0.10449,-0.41051,-0.5126,-0.35956,0.15057,0.17607,0.12508,0.68624,0.2271,-0.35954,-0.027974,0.099564,0.0741,-0.3851,-0.46162,0.17606,0.40564,0.15058,-0.13,-0.25748,0.15058,0.27806,-0.1045,-0.84405,0.099521,1.4001,-0.30846,-1.2265,-0.30847,0.40557,-0.51253,0.023029,-0.079002,0.3036,0.58412,0.074051,0.43113,0.27809,-0.53812,-0.5891,-0.002443,-0.20648,0.27805,0.099619,0.1506,0.12509,0.35464,-0.51264,-0.30856,-0.3341,-0.002443,0.22712,-0.23202,-0.18101,0.27811,0.6097,0.48214,0.099534,-0.18097,-0.48705,-0.28303,0.30352,-0.30847,-0.12998,0.074051,-0.79302,0.81356,-0.56346,-0.81848,0.38006,0.099528,0.83908,-0.5635,-0.56351,0.83915,0.60963,-0.64004,-0.20652,-0.28308,0.17608,0.023035,-0.10447,-0.027969,-0.002461,0.099546,0.15058,0.53317,0.12504,-0.23202,-0.078959,-0.1555,-0.76766,-0.13002,0.22711,0.15057,-0.027987,0.40565,0.27811,0.074081,0.099564,-0.20655,-0.23202,0.048531,0.2781,0.074136,0.022986,-0.15551,-0.10447,-0.23202,-0.23199,0.099521,0.38003,-1.354,-0.43601,0.68611,-0.84398,0.099552,0.099559,0.15054,0.27803,0.71157,-0.48701,-0.027993,-0.15551,-0.10443,-0.002472,-0.30846,0.22706,-0.15547,0.30363,-0.027993,-0.30854,-0.23203,0.12505,-0.48712,-0.69119,0.78827,0.68625,0.099559,0.17612,0.17609,-0.56361,-0.28302,0.09954,-0.10451,0.22706,-0.12997,0.20158,0.22704,-0.35953,0.17609,-0.027987,-0.23202,-0.078977,0.17606,0.25258,-0.35945,0.25257,-0.58902,-0.56353,-0.13001,0.38003,0.40559,-0.43601,0.15061,0.40556,-0.05347,0.32902,-0.15545,0.17612,-0.12999,-0.28303,0.048476,0.17612,-0.18102,0.17608,0.17607,0.048543,-0.13001,-0.002443,0.20159,-0.28302,-0.028018,-0.5635,0.048482,-0.078935,0.20156,0.40565,-0.027962,0.22708,0.074038,-0.053476,-0.28303,-0.28297,-0.002491,0.53308,-0.15548,-0.3595,-0.3085,0.27803,-0.02795,0.40554,-0.86954,0.12505,0.2271,0.15057,0.43108,0.43112,-0.053495,-0.30853,0.099564,-0.38507,-0.48706,-0.12997,0.023059,0.43117,0.53319,-0.028005,-0.20654,-0.43609,-0.05347,0.12506,0.048567,0.048555,0.12504,-0.13002,-0.002479,0.30361,0.12505,-0.18101,-0.10445,-0.23198,0.45656,-0.385,0.20156,0.25258,0.6861,-0.41047,0.32903,-1.4306,0.48209,-0.25751,-0.33401,0.3291,0.58408,-0.589,0.30358,-0.053427,-0.43599,0.17606,0.22704,-0.028018,-0.027969,0.2526,0.20158,-0.41058,-0.027998,0.074057,0.099588,-0.28303,-0.30855,-0.027944,-0.15549,-0.10451,0.048543,0.53318,0.48214,0.2526,-0.002467,0.12507,-0.10449,-0.18099,-0.38507,-0.18103,0.27809,0.15057,0.048561,-0.05347,-0.0535,-0.2575,-0.10451,-0.10452,-0.053482,0.12506,-0.18094,1.0686,0.25259,-0.15548,0.55861,-0.94603,-0.05347,-0.078984,-0.002479,0.3801,0.30357,0.20156,0.15056,-0.079002,-0.027998,-0.15543,-0.10446,-0.10449,-0.46159,-0.71667,0.023054,0.2526,0.40564,0.45668,-0.10448,-0.13,-0.053506,-0.12999,0.074044,0.048549,0.17605,-0.027974,-0.33402,-0.079002,0.048543,0.099583,0.12505,0.07402,-0.12998,-0.053458,0.17603,-0.20648,-0.35945,0.35455,-0.002485,-0.2065,0.22704,-0.35951,0.099503,-0.5635,-0.20646,0.15057,-0.078972,-0.027931,0.35459,0.35456,0.12504,-0.13,-0.002485,0.40563,-0.30858,-0.35958,0.27811,-0.078996,-0.053421,0.35467,0.38016,-0.20653,-0.92072,-0.30856,0.40564,0.12505,0.53318,0.32912,-0.002436,-0.28301,-0.13002,-0.15554,-0.15553,0.048573,0.12504,-0.00243,0.30356,-0.35947,0.048487,0.048512,0.12503,0.074026,-0.4105,-0.078966,0.60959,-0.12996,-0.18095,-0.76752,0.12502,-0.002472,0.20156,0.099588,0.17603,-0.10454,-0.07899,0.15055,0.15059,-0.48711,-0.002467,0.15063,-0.23202,-0.12997,-0.23201,0.15058,0.27811,0.074038,-0.002479,0.02301,0.023023,-0.079008,-0.181,-0.002467,-0.23202,0.22716,0.66065,-0.23198,-0.05347,0.3036,-0.002521,-0.2065,0.50754,-0.86961,-0.64003,0.048561,1.1961,-0.12998,-0.027931,0.12509,-0.18098,-0.69102,-0.078959,0.099559,-0.0535,0.023005,0.32907,-0.12989,0.30362,0.22712,-0.25755,-0.3851,-0.20651,0.023072,-0.1555,-0.002448,0.20159,0.20158,0.17609,0.35463,-0.13,-0.25751,-0.053488,-0.38507,-0.23204,-0.20653,0.1761,0.35462,0.12505,0.09954,-0.027944,-0.10444,0.27806,-0.028011,-0.12998,-0.02795,0.35459,0.099583,0.099534,-0.13001,0.27797,-1.1756,-0.51252,-0.10447,-0.28298,1.0176,0.58412,0.60967,-0.12993,-0.30849,-0.002491,0.25259,0.12507,-0.25753,-0.61457,-0.027956,-0.20652,0.15059,0.27813,-0.02798,-0.33409,0.20161,0.30364,0.023035,-0.35957,-0.078996,0.25257,0.074044,0.12508,0.12506,-0.13002,-0.20653,-0.15554,-0.181,-0.23195,0.099559,0.1251,0.022986,-0.33398,0.32909,0.20158,0.099546,-0.10445,0.96658,-0.56353,-1.8386,0.38009,0.074051,1.0176,0.074044,0.73708,-0.76754,-1.3031,0.048525,0.20155,0.3291,0.22708,0.048518,-0.053525,0.15057,-0.12998,-0.35952,-0.2065,0.099577,0.1506,0.40561,0.40565,-0.02798,-0.13002,-0.002454,0.048543,-0.18099,-0.20651,-0.23204,0.048555,0.40563,0.25254,-0.078984,-0.23197,0.3036,-0.078966,-0.10448,-0.002503,-0.2065,-0.28302,0.17606,-0.00243,0.32909,0.074026,0.30358,-0.078959,-0.283,-0.33402,0.40554,-1.2266,-0.35949,0.50762,0.96662,-0.002436,0.099559,0.074038,-0.027993,-0.181,0.20156,-0.35953,-0.41051,0.099564,0.3801,-0.027998,0.22707,-0.10451,0.099564,0.023072,0.27803,-0.12997,0.074062,-0.0535,0.074051,0.12506,0.17607,-0.002443,-0.027993,-0.002467,0.09957,-0.35957,-0.15547,0.17605,0.22711,0.099577,0.17605,-0.61458,-0.13002,0.30358,0.25257,0.55859,-0.94602,0.20155,1.5277,-0.15543,-0.844,0.12503,0.074013,0.12504,0.125,-0.28303,-0.41049,0.25256,-0.027931,0.074038,0.048543,0.048518,-0.002472,-0.078977,-0.30852,-0.078972,-0.15549,-0.2065,0.17607,0.50765,0.22708,0.17608,0.074075,0.048536,0.048525,-0.28302,-0.079008,-0.07899,0.074069,0.22708,0.074044,-0.13,-0.30852,-0.12999,-0.002485,-0.33405,-0.1045,0.43115,0.1251,0.48209,0.17608,-0.97153,0.63507,-0.64001,-0.18101,-0.283,-0.4615,1.1706,0.40554,0.15059,0.25257,0.023035,0.099559,-0.15553,-0.33404,-0.28305,0.074044,-0.002443,0.30364,-0.30856,0.023059,0.63521,0.074069,-0.58915,-0.33403,0.20159,0.30363,0.048549,0.048536,0.15057,0.25262,0.15056,-0.10451,-0.33401,-0.33407,-0.28303,-0.053525,0.27812,0.15056,-0.053458,0.12504,-0.12996,-0.053513,0.074069,-0.5635,-0.53804,0.55858,0.099588,0.38008,-0.66548,0.58408,-0.283,-0.38498,-0.25749,0.58405,-0.053476,-0.43598,0.45663,0.09951,-0.053495,0.048518,0.15055,-0.053458,-0.35954,0.074062,0.048567,-0.25753,0.074051,0.50768,0.25259,0.023029,-0.10449,-0.25753,-0.13001,-0.25751,-0.53813,-0.30856,0.25257,0.58419,0.30358,0.17609,0.15056,0.074069,-0.35951,-0.28304,-0.23199,-0.027969,0.48207,-0.15548,0.25253,-0.078923,0.32904,0.27807,-1.201,-0.1045,-0.232,-0.76752,0.58409,0.099613,0.15054,0.22704,0.12504,0.09954,-0.053495,-0.30853,-0.18101,-0.05347,-0.027956,0.2271,0.023054,0.074044,0.15058,0.074069,-0.30856,-0.28303,0.023047
-0.10449,-0.15552,-0.15549,0.023059,0.15055,0.074038,0.048549,-0.027974,-0.002472,-0.027962,-0.027944,-0.181,-0.07899,-0.002461,0.17609,0.27809,0.023035,-0.02798,-0.10449,-0.13001,-0.027974,-0.18101,-0.10449,-0.002472,0.20159,0.048555,0.17607,0.20155,-0.027962,-0.078972,-0.15549,-0.2575,-0.35949,0.22708,0.48209,-0.053495,0.023047,0.074062,-0.10451,-0.12998,-0.10448,-0.10451,-0.18101,-0.002454,0.20157,0.099559,0.15059,0.2016,0.023029,-0.1555,-0.078972,-0.1555,-0.18101,0.099564,0.22707,-0.002479,0.023047,0.074033,-0.053476,0.023054,-0.053488,-0.2065,-0.053488,-0.027969,0.12507,0.023029,0.15058,0.12505,-0.053464,-0.053476,-0.07899,-0.027962,-0.13,-0.12999,0.22706,0.12505,0.17607,-0.027969,-0.053458,-0.053488,-0.18099,-0.078972,-0.20651,-0.10447,0.048518,0.15056,0.27808,0.12509,-0.10449,-0.078984,0.12507,-0.13001,-0.2065,-0.25754,0.17605,0.15059,0.32914,0.35463,0.15059,-0.38507,-0.43607,-0.10448,0.023054,0.023059,-0.13004,0.30361,0.40562,0.30364,-0.13001,-0.12998,-0.12999,-0.053482,-0.28301,-0.20652,0.15056,0.073995,0.04858,-0.10447,0.63506,-0.20648,-0.66551,-0.48705,-0.20651,0.22707,0.30356,0.17607,0.27808,0.30358,-0.18102,0.35466,0.15059,-0.23202,-0.28303,-0.35957,-0.30855,0.12507,0.12508,0.17611,0.099564,-0.15549,-0.23203,-0.002485,-0.07899,0.27814,0.27808,-0.053495,-0.002448,0.048531,-0.15553,0.45666,0.023041,-0.15554,-0.027969,-0.38504,-0.43602,0.35458,0.023023,0.71163,-1.2521,-0.18097,0.15057,0.48203,0.048543,-0.25746,-0.56348,0.66067,0.68611,0.099528,-0.027993,-0.33403,-0.20649,-0.25752,-0.23203,-0.41047,0.023035,0.22707,0.25259,0.048555,-0.053519,-0.002479,0.12507,-0.027987,-0.10447,-0.12996,0.27812,0.53311,-0.12998,-0.12999,-0.078996,-0.15549,0.074069,-0.38508,-0.38509,-0.28304,0.17607,0.48214,0.15057,-0.053458,0.60963,-0.20646,-0.18103,-0.23203,-0.15551,0.023059,0.22709,0.048525,0.099577,0.20159,-0.33401,-0.15548,0.15052,0.12498,-0.15549,-1.099,-0.002461,0.6861,0.60959,-0.43596,-0.078984,0.17607,0.12505,-0.027987,-0.20653,-0.053495,-0.079008,0.1251,0.023035,0.099577,0.27814,0.15061,-0.28303,-0.43612,-0.28304,0.074038,-0.02798,-0.13002,-0.15551,0.76278,0.55869,0.12509,-0.027969,-0.13002,-0.48709,-0.58918,-0.027969,0.15059,0.22707,0.2271,0.15056,-0.10447,-0.10447,-0.18101,-0.028018,0.45651,-0.12993,-0.97153,-0.38491,0.73712,0.89009,-0.053488,0.15053,-0.027998,0.12502,-0.25751,0.074057,0.074038,0.074075,0.22711,0.023059,-0.10448,-0.30844,-0.33404,-0.18103,-0.053506,0.22707,0.25258,0.15056,0.17607,0.12509,-0.13004,0.04858,-0.20652,-0.13001,-0.078996,0.2526,0.074075,-0.18104,-0.15551,0.20158,0.15059,0.023047,-0.28303,-0.18101,0.023023,0.25261,0.12507,0.023029,0.048549,0.048561,-0.002461,-0.25754,0.073995,-0.23198,0.25259,0.12503,-0.12999,-0.51246,0.27807,0.60959,-0.18097,-0.232,-0.028018,-0.002516,-0.35951,0.023054,0.3291,0.83914,0.099546,0.048567,-0.35955,-0.12998,-0.05347,-0.12996,0.023017,0.074051,0.12505,-0.002479,0.12507,0.17607,0.3036,-0.10443,-0.51257,-0.30856,-0.079002,0.20152,0.048531,0.22708,-0.078947,-0.10449,0.22702,-0.35949,-0.13001,0.048561,0.2526,0.12507,0.023029,0.12508,0.20157,-0.078984,-0.13003,-0.078959,-0.10446,0.15056,-0.028036,0.022992,-0.56347,0.15059,0.27805,0.048518,0.25255,0.35464,-0.30858,-0.12999,0.38008,0.27815,-0.18096,0.12504,-0.51246,0.12503,-0.46151,-0.30851,-0.13002,0.15054,0.2525,0.22709,-0.002436,-0.18097,0.38006,0.0485,-0.10444,-0.027962,-0.13001,-0.15548,0.09954,0.048543,0.45662,-0.30846,0.023047,-0.46151,-0.51254,0.12504,-0.002479,-0.002454,0.25259,0.20154,0.023035,0.023059,-0.10449,-0.35951,0.023041,0.32907,-0.28302,-0.15553,-0.002461,0.25262,0.12506,0.12509,-0.002485,-0.053476,-0.1045,-0.027969,-0.10449,-0.078996,-0.25751,0.15057,0.58415,0.55867,0.20158,-0.38503,0.27803,-0.38503,-0.81858,-0.25754,0.099491,0.40559,0.3291,0.45659,0.35459,-0.20646,0.12502,0.58408,-1.2266,-0.053476,-0.12996,-0.002497,0.12505,0.22707,0.099559,0.17608,-0.43596,0.074013,0.43099,-0.18098,-0.10447,0.12507,0.15056,0.20155,0.023059,-0.12999,0.12502,0.023059,0.048512,-0.58907,-0.12999,0.43116,0.27814,-0.078977,0.048549,0.12503,-0.053464,-0.079021,-0.18098,-0.25755,-0.002485,0.099564,0.12507,0.12509,-0.02798,-0.10449,-0.13,-0.078972,-0.078972,0.048518,0.25256,-0.10443,-0.078928,-0.66551,0.43108,0.32905,-0.20652,0.20155,0.048561,-0.20652,-0.23202,-0.002491,0.074033,0.17612,-0.20648,0.15051,-0.35951,-0.053482,-0.053464,-0.053488,-0.28305,0.023059,0.20157,0.099559,0.2016,-0.002443,-0.027956,-0.028011,0.074057,-0.053495,-0.18102,0.15057,-0.002485,0.17607,0.099577,-0.18098,0.048543,0.099564,-0.12999,-0.20652,0.074038,0.099521,0.22708,0.27805,1.1706,-1.3796,-1.3796,0.12503,0.32908,-0.79303,-0.002491,0.30358,1.0176,0.15055,0.45659,0.048512,-0.53799,0.25252,-0.61454,-0.078984,-0.15549,0.074075,-0.053446,0.048536,0.38013,-0.12999,-0.35957,-0.12999,-0.10449,-0.25755,0.2781,0.2271,0.2271,0.48216,0.66074,-0.13,-0.74217,-0.41061,-0.053488,-0.053451,0.2526,0.12505,-0.053433,0.023035,0.20155,0.099588,-0.05347,-0.15551,0.099521,-0.30852,-0.56353,0.35458,0.40558,0.09957,-0.23194,-0.92051,0.074013,0.86459,-0.25751,-0.38502,-0.181,-0.15547,0.2271,0.074057,0.40562,-0.078972,-0.38499,-0.23201,-0.20654,-0.23204,0.12507,0.27808,0.17608,0.048512,-0.053476,-0.053446,0.15059,0.074069,-0.30857,-0.41058,0.074069,-0.027962,0.22711,0.27811,0.68619,0.074136,-0.18097,-0.15552,-0.25759,-0.3596,-0.28307,0.074044,0.023059,0.099552,0.099552,0.048573,-0.23195,0.023047,0.6096,-0.027944,-0.74203,-0.20652,-0.10449,0.20158,0.40555,-0.12999,-0.58903,-0.053451,-0.027969,-0.25753,0.27802,0.048531,-0.15546,0.2781,0.048555,-0.05347,0.048561,0.58409,-0.46152,-0.20652,-0.28302,-0.1555,0.15059,0.2526,0.023023,-0.13002,-0.078984,-0.05347,0.048536,0.074051,0.17611,0.07402,-0.25751,-0.053476,0.48216,0.25259,-0.28305,-0.38509,0.023041,-0.053446,-0.028005,0.074069,-0.053427,0.63509,0.22709,-0.76754,0.15054,0.15057,-0.28303,-0.35951,0.048531,0.3546,0.048536,0.20152,0.30358,0.048561,0.048555,-0.15549,-0.35953,-0.20652,-0.027938,0.023054,0.17609,0.023035,0.074033,0.099577,-0.053464,-0.18103,-0.38507,-0.18098,-0.15553,0.023005,0.2781,0.35465,0.38015,0.27811,-0.33405,-0.38507,-0.18101,0.15054,0.15054,0.38007,-0.61448,-0.05347,-0.027938,0.40557,-0.538,1.0176,-0.71656,-0.18099,0.17604,0.22706,0.048555,0.20159,-0.078959,0.32904,-0.07899,-0.41049,-0.053495,-0.13002,0.32909,0.25256,0.2526,-0.18105,-0.078977,0.17609,0.023065,-0.18097,-0.41054,-0.69115,-0.078972,0.53316,0.53318,0.68624,0.35463,-0.25753,-0.33409,-0.28303,-0.41055,-0.15553,-0.002479,0.17607,0.25259,0.12504,0.09957,0.09954,0.048561,-0.334,-0.86957,0.68608,-0.027993,0.1506,0.048555,-0.25746,0.58406,-0.79302,0.3291,-0.002418,-0.81859,-0.38509,0.022992,0.38007,0.48214,0.32908,0.58414,0.099559,-0.61457,-0.43605,-0.053482,0.25263,0.15057,-0.48713,-0.20653,0.074062,0.023059,0.30363,0.32915,0.43117,0.074087,-0.35957,0.099583,-0.053519,-0.25756,-0.0535,0.023017,0.17609,-0.15553,-0.10449,-0.33403,0.25254,-0.002443,-0.76747,0.25259,0.40561,0.25257,-0.20647,0.099503,0.22702,0.099528,0.12503,-0.538,-0.30849,-0.027969,0.048561,0.30363,-0.002472,-0.46157,-0.20651,-0.18103,0.074069,0.099583,0.15057,0.099546,-0.38496,0.78813,-0.2575,-0.30856,0.048518,0.78818,-0.28298,-0.079021,0.099521,-0.53801,0.2015,0.5076,1.9612,2.1907,-6.9644,-1.7112,0.32904,1.5532,1.2216,1.4001,0.76264,-0.002412,0.83912,1.2216,-0.33402,-0.61456,-0.76757,-0.53805,-0.33396,-0.18097,-0.35949,-0.15539,-0.23201,0.099564,-0.05347,0.17606,0.25259,-0.18105,0.048458,0.099491,0.3801,0.27806,0.20158,0.2526,-0.1045,0.074075,0.50764,0.0741,0.17609,-0.12998,-0.38505,0.022998,-0.002485,0.022998,-0.15556,-0.027969,-0.71654,0.048543,0.048573,0.27808,0.2271,0.40559,1.1706,-0.30846,-1.6091,0.94104,-0.23202,-0.18095,0.17608,0.35458,-0.002497,-0.51249,-0.181,0.43106,0.27805,-0.15552,-0.20649,-0.07899,0.12509,-0.027993,0.30363,0.43117,-0.10447,-0.25755,-0.33407,-0.13,-0.33405,0.048555,0.2781,0.15057,0.048531,0.12508,0.023029,-0.23201,-0.053476,0.048543,-0.15547,0.30355,-0.33394,-0.027974,0.25257,0.45653,-0.43598,-0.0535,-0.18098,0.12503,-0.33402,0.43108,0.12508,0.43106,0.15056,0.099601,-0.02795,-0.002448,-0.232,-0.43601,-0.23204,0.12502,0.15052,-0.41051,0.27812,0.53315,-0.38513,-0.43609,-0.078959,0.32916,0.099577,-0.027956,0.12507,0.099577,0.20157,0.15057,-0.027944,-0.18103,-0.35955,-0.079014,-0.078972,0.30357,-0.487,0.53307,-0.12996,-1.201,0.38005,0.023005,0.099534,0.35458,-0.38503,-0.23198,-0.053433,0.1761,0.17607,0.48214,0.17609,-0.10453,-0.9461,-0.28302,-0.12999,0.15051,-0.07899,0.43115,0.25262,0.43113,0.20161,0.27811,-0.81872,-0.61463,0.022992,-0.002423,0.27812,0.2526,0.30361,0.3036,0.12507,0.25259,-0.002454,-0.20655,-0.81865,-0.33405,0.40559,0.27808,-0.20642,0.023047,0.15052,0.074044,0.20151,-0.61449,-0.10447,0.12504,0.38008,0.09954,0.38008,0.38007,-0.58899,0.45664,-0.33401,-0.23203,-0.053519,0.27804,-0.25751,-0.002472,0.22711,0.22708,-0.20652,0.12511,-0.15551,-0.23202,0.15058,0.30362,-0.10448,-0.079002,0.074051,0.60962,-0.30853,-0.30853,-0.078984,-0.23201,-0.43604,-0.002436,0.20155,0.25257,0.55862,0.48211,-0.46152,-0.12997,-0.76754,0.50757,-0.12998,-0.43602,0.074075,0.83909,0.17606,0.12505,0.022992,-0.30849,0.048549,-0.15546,-0.078972,0.074062,-0.13002,0.023023,0.074075,0.023023,-0.43608,0.17611,0.2781,-0.078935,0.25247,-0.4105,0.43117,0.60965,-0.58911,-0.13002,-0.002461,-0.74199,-0.10443,-0.053476,0.22705,-0.18097,0.40557,0.22705,0.7116,-0.58899,-0.20651,-0.15551,0.30356,0.86458,-1.4816,-0.71652,-0.002479,0.25256,0.30359,0.53312,0.40556,0.048531,0.048555,-0.002491,-0.18099,-0.027925,-0.15551,0.12506,0.22712,-0.13001,-0.38509,0.023084,0.38017,0.30362,-0.5381,-0.13002,0.27811,0.20158,-0.1045,-0.13,0.099552,0.20155,0.17606,-0.18094,0.048536,-0.15548,1.0176,-0.20646,-0.002472,-0.30847,0.83909,-1.1501,-0.66551,-0.232,1.1196,-1.2776,0.48208,0.71158,0.5076,-0.25748,0.15053,-0.23197,-0.18097,-0.13,-0.15551,-0.18101,0.12506,-0.1045,-0.027962,0.20158,0.2271,0.53318,-0.10451,-0.38507,-0.10449,-0.053482,0.27808,0.22711,-0.027956,0.099559,0.099534,-0.027987,-0.46153,0.074013,-0.25752,-0.181,0.55856,-0.053446,-0.23197,0.074057,0.32907,-0.283,-0.2575,0.12502,0.099564,0.17606,0.48208,-0.20648,0.15057,-0.28295,0.25254,0.048536,0.30354,-0.66552,-0.15548,0.17602,0.22704,0.074087,0.048567,0.12505,0.048536,-0.027962,-0.18099,-0.33402,-0.13002,0.35459,-0.15546,-0.23203,0.048543,-0.002467,0.2271,0.099552,-0.002467,-0.20651,-0.02798,0.12508,0.2271,0.22707,-0.079002,0.3291,0.17607,-0.25752,-0.23203,-0.23201,-0.41052,0.63504,-0.002436,0.43112,0.048518,0.048531,-0.28294,0.35456,0.35461,-0.079021,0.25256,0.048536,-0.053476,0.22705,-0.10439,0.38008,-0.76754,-0.3595,0.048518,0.35456,0.15052,-0.46159,-0.053451,0.43118,0.2526,-0.74218,-0.4106,-0.053446,0.53321,0.20159,0.048555,-0.28301,-0.002503,0.25259,0.38013,0.048536,0.17607,-0.10449,-0.079008,-0.2065,-0.33405,-0.23204,-0.13003,0.25257,0.12509,0.3801,-0.002412,0.023054,-0.078966,-0.23197,0.25252,-0.74201,0.4311,0.68611,-0.53801,-0.027931,0.27803,0.12501,-0.25751,-0.28299,-0.33398,0.20154,0.86461,-0.12998,0.09957,0.12509,0.023054,-0.15551,-0.30855,-0.23202,-0.078984,0.023041,0.074044,0.02301,0.22705,0.38017,0.38016,0.09957,-0.027987,0.048531,0.2271,-0.23203,-0.027993,-0.053506,-0.027993,0.023035,-0.30848,-0.25751,0.40556,-0.10445,-0.28304,-0.027987,0.09954,0.17607,-0.43596,0.43109,0.45656,-0.15548,0.17606,-0.002491,-1.1756,-0.7675,0.45658,0.7116,0.71162,0.4311,-0.15549,-0.48708,-0.10447,-0.078966,-0.20651,-0.078959,0.023072,0.30361,-0.18101,-0.079002,-0.28308,-0.027969,-0.2065,0.2016,0.17609,0.20159,0.27811,0.30359,-0.1045,0.20153,-0.10444,-0.23203,-0.13002,-0.13,-0.23203,-0.079021,0.2781,0.12509,0.22708,0.09957,0.048555,-0.2065,0.048536,-0.027969,-0.002491,0.12505,-0.48699,-0.84402,0.40559,0.27805,0.09954,-0.43596,-0.15548,0.32905,-0.20647,0.0485,0.35459,-0.28296,-0.05347,0.20159,0.074038,-0.028005,-0.20651,-0.10453,-0.33402,0.4057,0.25259,-0.13003,-0.079014,0.25257,0.023065,-0.053476,-0.10446,0.074038,-0.10447,-0.002448,0.12504,0.12507,-0.078996,0.048555,-0.002479,-0.283,0.12504,-0.13,0.048543,-0.53804,0.76259,-0.38495,0.3801,1.0432,0.38007,-0.43595,-0.20652,-0.2065,-0.35954,0.023017,-0.23193,0.25259,-0.10448,-0.078977,0.38001,-0.053458,-0.58903,-0.385,-0.00251,-0.002467,0.25257,0.35464,0.048512,0.15058,0.099546,0.20163,-0.027974,-0.053506,-0.51256,-0.30854,0.1506,0.15054,0.15056,0.22706,-0.07899,-0.15548,-0.027987,0.074038,-0.56354,0.074013,0.5331,0.023078,-0.20647,0.3291,0.023035,-0.12999,0.17604,-0.30851,-0.12999,-0.20652,0.099552,0.15056,0.20158,-0.10445,-0.76753,-0.15547,0.15054,0.099503,-0.078996,0.023005,0.30361,0.20158,-0.027998,-0.20653,0.048536,0.099613,0.048561,-0.20651,-0.28303,0.099546,0.048549,0.023023,0.15057,0.12507,0.074062,0.1251,0.023035,-0.20652,-0.30854,0.048536,-0.027969,0.27808,0.048512,0.38006,0.048567,-0.58901,0.45654,-0.48699,-0.1045,0.30355,0.71163,0.099546,0.17608,0.023054,0.023054,0.048555,-0.2065,-0.30854,-0.30852,-0.15549,0.12505,-0.10452,0.023054,0.48218,-0.027987,0.023041,0.40561,-0.46155,-0.51262,-0.13,0.15058,0.22708,0.3036,0.43117,0.1251,-0.15552,-0.28306,-0.25751,-0.20651,-0.1045,0.48206,-0.12992,0.2526,0.023059,-0.20652,0.17603,-0.51249,-0.18098,-0.2575,0.32904,0.30358,0.023059,0.27806,-0.23196,0.023035,0.023047,0.22704,0.25254,-0.15551,-0.10446,0.20156,0.048561,0.099564,-0.078966,-0.12998,-0.078953,-0.43607,-0.38508,-0.053464,0.22712,0.30363,-0.079008,0.32912,0.30361,0.20159,-0.027993,-0.053482,-0.28303,-0.30855,0.099515,-0.053458,-0.027944,0.25254,0.074081,-0.12998,-0.053476,0.43107,-1.0735,0.048506,-0.33402,0.48209,-0.58896,-0.20647,0.6096,-0.10445,0.38005,-0.41052,0.35456,-0.46151,-0.002472,0.22704,0.20155,0.20156,0.12505,-0.078972,-0.12996,0.074069,0.023041,-0.12998,-0.28305,-0.23205,0.048536,0.099583,0.38014,0.048555,0.048573,-0.002461,-0.18102,-0.1045,0.074062,0.27808,0.048549,0.12505,-0.13,-0.2065,-0.2065,0.074002,-0.25749,-0.002443,-0.078996,0.023059,0.38009,-0.002443,-0.002454,-0.10447,-0.84404,0.45657,0.17604,0.43101,-0.05347,-0.10444,0.15059,0.27808,0.023047,0.40558,-0.25751,-0.053476,-0.053476,-0.1045,-0.078996,0.15057,-0.078941,0.023059,0.2271,0.20156,-0.28305,-0.33406,-0.41061,0.048573,0.45667,0.27811,0.2271,0.43113,0.2016,-0.13001,-0.33405,-0.33406,-0.18104,-0.25753,-0.002454,0.023029,0.20159,0.2016,0.3546,-0.053451,-0.078947,0.048518,-0.35953,-0.15549,-0.35951,0.048525,0.22708,0.45662,0.15056,0.12506,-0.053488,-0.35953,-0.41052,0.048518,-0.48701,0.099595,0.35461,0.023017,-0.20658,0.17604,0.22708,0.099601,0.2271,-0.027956,-0.002448,-0.053488,0.15057,-0.079014,0.023035,-0.027956,-0.027962,-0.20654,-0.028018,-0.078959,-0.053446,0.17604,0.55861,-0.28296,-0.053439,0.12505,0.048531,0.25256,-0.28302,-0.30852,0.22704,0.25256,-0.20646,0.099559,0.6096,-0.30849,-0.61452,0.27805,0.20155,-0.69104,-0.66554,0.22711,0.20153,0.048506,0.3801,-0.7675,-0.15553,-0.079002,0.15057,-0.13001,-0.2065,0.25259,0.43119,0.2526,-0.002491,-0.05347,-0.35954,-0.027974,0.099546,-0.35955,-0.13001,-0.28301,0.20156,0.12505,0.40561,-0.078966,0.20153,0.074038,0.099546,-0.1045,-0.25749,0.2781,0.17607,0.63509,0.40557,-0.86954,-0.33399,0.15054,0.17604,0.15051,0.32904,-0.078953,0.20159,0.048536,0.048549,-0.053495,-0.078959,0.023047,-0.10447,-0.53809,0.023047,0.45666,-0.002454,-0.002472,0.22708,0.074062,0.023017,-0.027969,-0.027956,-0.20653,-0.20653,0.074051,0.2781,-0.053495,0.074044,-0.13,-0.027962,-0.053439,-0.30851,0.12504,0.20153,0.17607,0.30357,-0.71648,0.30361,-0.13,0.048567,0.32903,-1.2521,0.09951,-0.23201,-0.385,0.78814,0.35459,-0.48698,0.048518,-0.13002,0.20159,0.12505,-0.002485,-0.28305,-0.12999,0.32908,-0.079002,-0.12989,0.074075,-0.0535,0.048543,0.30363,-0.053451,-0.20654,-0.027993,0.023023,-0.13001,0.074044,-0.12997,0.048543,-0.053476,-0.078977,0.023029,-0.15549,0.20159,0.12505,0.25262,0.35459,0.023029,0.17606,-0.64001,0.099491,-0.13001,-0.15548,0.22706,0.09957,0.38011,0.099564,-0.10449,0.048536,-0.078977,-0.30851,-0.30853,0.023017,0.048573,0.40562,0.09954,-0.028005,0.12505,0.20157,-0.23202,-0.283,0.099619,0.17609,-0.10451,0.048543,0.12505,0.02301,-0.027962,0.22711,-0.25754,-0.078996,-0.07899,0.048543,0.27803,-0.053427,-0.25749,0.30357,0.35457,-0.35952,-0.20652,0.099546,-0.15548,0.12502,0.38008,0.45662,-1.252,-0.053446,-0.078996,0.32904,0.15054,-0.079014,-0.13002,0.89011,-0.58898,0.09957,0.27805,0.27809,0.2526,-0.12996,-0.18098,-0.4361,-0.30854,-0.15551,0.3036,-0.002461,-0.027993,0.30361,0.27813,0.048555,0.22713,-0.078977,-0.20651,-0.30854,0.022986,0.27809,-0.15544,0.074008,0.023047,0.074013,-0.20655,-0.181,0.023035,-0.027956,0.074069,0.40558,0.86461,-0.38497,0.074062,-0.8185,0.63508,-0.38499,0.048512,0.43104,0.30356,0.17607,0.32905,0.25256,-0.002461,-0.02798,-0.20649,-0.35954,-0.33401,-0.20642,-0.002454,0.48209,-0.46154,-0.15555,-0.56355,0.074106,0.60968,0.099521,0.023041,-0.002497,0.12506,0.2781,0.32914,0.2526,-0.23202,-0.30858,-0.41054,-0.10451,-0.33403,-0.15552,0.50757,-0.38493,-0.2575,0.9411,-0.46148,0.20155,0.35458,-0.97152,0.25254,0.68606,-0.002485,0.78813,-0.58898,-0.20648,-0.02795,-0.35949,-0.23201,0.17603,0.099546,-0.12997,0.074026,0.12505,0.17606,0.20159,-0.181,-0.30852,-0.078996,0.22713,-0.20652,-0.18105,0.12502,0.12506,0.074075,0.32913,0.023041,-0.20649,-0.002467,-0.002516,0.023023,-0.33399,-0.15543,0.48211,0.20153,0.074051,0.32904,-0.84407,-0.07899,-0.0535,-0.28302,0.78813,-0.002461,0.35456,0.20157,0.099559,-0.41047,-0.20648,0.55854,-0.12998,-0.13002,-1.0225,0.40557,-0.12997,0.78813,0.12508,0.12507,0.048506,-0.002461,-0.35949,-0.30854,-0.20649,-0.028029,0.32909,-0.41049,0.023047,0.32907,-0.10447,0.17607,-0.10452,-0.027969,-0.002472,-0.002467,0.12504,-0.00243,0.17609,0.35459,-0.30854,-0.61456,-0.20652,-0.0535,0.25255,0.50756,-0.28295,0.023041,0.17606,0.023041,-0.10445,-0.053464,-0.18104,-0.25753,0.32907,-0.28296,0.48208,0.074057,-0.33395,-0.30847,0.12502,0.20151,0.32907,-0.79304,-0.078977,0.55859,-0.12994,-0.053495,0.20157,-0.20653,-0.23204,-0.002479,-0.027956,-0.18099,0.048536,0.12504,0.43117,0.27813,0.17608,-0.20652,-0.15549,-0.027969,0.022998,-0.15551,-0.23199,0.074038,0.22706,0.20156,-0.002467,0.27805,-0.10449,-0.10449,-0.53804,-1.3796,-0.12997,0.074062,0.53306,0.73709,0.12509,0.048525,-0.23199,-0.25748,-0.99704,0.099466,0.15054,0.38013,0.40564,0.02301,0.048518,-0.30849,-0.30851,0.15057,0.099564,0.27804,-0.58913,0.023023,-0.027871,0.32912,0.12507,0.048555,-0.28302,-0.15552,0.17608,-0.027956,-0.079008,-0.20652,0.25259,0.099577,0.099534,-0.18102,-0.027987,-0.10449,-0.053451,-0.078984,-0.18097,0.30361,0.50759,-0.10447,0.2271,-0.12998,-0.02798,-0.38501,-0.30854,0.048506,0.22708,0.6351,0.30355,-0.23198,0.32912,-0.078972,-0.181,0.074026,-0.283,-0.66554,0.2781,0.45659,-0.002467,-0.13001,0.12504,0.099559,-0.15548,0.17606,-0.002454,-0.28302,-0.283,0.27811,0.43113,0.074057,0.074026,-0.002467,-0.2065,-0.053476,-0.18103,-0.28303,-0.12998,0.02301,0.09954,0.048585,0.25259,0.27806,-0.20647,0.17603,-0.20647,-0.41053,-0.69106,0.023054,0.63512,0.60958,0.30358,0.50757,-1.0481,-0.81855,0.048531,0.17603,0.15054,0.17605,0.048494,0.074038,0.074051,0.074087,0.074069,-0.25754,-0.02792,-0.43607,-0.28305,0.22712,0.09957,0.074051,0.27808,0.20159,-0.20651,-0.28306,-0.002485,0.074062,-0.027944,0.074026,0.40561,-0.002461,-0.05347,-0.10449,-0.10451,0.048525,-0.027969,-0.20651,-0.46152,-0.46148,0.60962,0.6606,-0.15546,-0.28294,0.35455,-0.181,0.15053,-0.43604,0.15054,0.27808,-0.10446,-0.027969,0.099577,0.12509,-0.18103,-0.13003,0.048549,-0.002436,-0.002467,0.074033,-0.33409,-0.30855,0.35464,0.68621,0.15057,-0.078984,-0.10447,-0.181,-0.30857,-0.02798,0.22712,0.2526,-0.10453,0.27812,-0.28302,0.023035,-0.18103,-0.23201,-0.13001,0.099564,0.27806,-0.12999,0.30359,0.074062,-0.15549,0.15056,-0.053482,-0.61452,0.20155,-0.81854,-0.027956,0.22707,-0.18097,0.20158,0.25253,0.22702,0.32905,0.12502,-0.283,-0.002491,0.099577,0.1251,0.48218,-0.002479,-0.64014,-0.12998,0.04858,-0.35956,-0.028042,0.09957,0.1506,0.074057,0.20159,-0.053451,0.45659,-0.334,-0.078984,-0.078977,-0.181,-0.20655,0.15057,0.2526,0.099564,-0.002467,-0.027974,0.12504,-0.28305,-0.35952,-0.002454,0.20156,0.074057,0.32907,0.55857,-0.078928,-0.61448,-0.027993,-0.71654,0.15052,0.48209,0.35458,0.048531,0.15054,0.074044,0.048561,-0.078977,-0.12998,-0.20649,-0.002472,-0.28303,0.17606,0.22707,0.023041,0.30362,0.074057,0.099577,-0.078972,-0.35956,-0.1555,-0.027956,0.22711,0.15057,0.17609,0.40561,-0.002467,-0.35952,-0.13,-0.18106,-0.33403,-0.027944,0.30356,0.22705,-0.12994,0.3036,0.20154,-0.56348,-0.283,0.50754,-0.84405,-0.43601,0.71159,1.0431,-0.25748,0.04858,0.30361,0.9921,-0.41057,-0.97157,-0.027931,-0.002479,0.048536,0.27808,-0.05347,-0.079033,-0.35959,-0.10447,0.12507,0.22713,0.22711,-0.20653,-0.078984,0.27808,0.22712,-0.053458,0.22709,-0.10449,-0.28305,-0.18101,-0.25754,0.048536,0.023041,-0.053464,0.09957,0.2526,0.099559,-0.13001,-0.053495,-0.12998,0.15051,-0.12997,-0.46147,-0.15544,0.25259,0.48209,0.20156,0.27806,-0.283,0.15052,-0.30852,-0.10445,0.32911,-0.053482,-0.43609,0.099546,0.1761,0.32913,0.17609,-0.74215,-0.61465,0.023065,0.60971,0.27813,-0.23205,0.048543,0.12505,-0.027944,0.023047,-0.15552,-0.43606,-0.07899,0.15057,0.22708,0.20156,0.15057,0.023047,-0.1555,-0.18097,-0.027969,0.27804,-0.079008,-0.84407,0.22711,0.66059,1.6297,-0.81849,-0.94603,-0.25747,-0.18099,0.68605,0.17604,0.45653,-0.10444,0.43113,-0.053446,-0.002436,-0.43604,-0.43605,-0.10447,-0.078966,0.60962,-0.002472,-0.30856,-0.20649,0.53323,0.27809,0.048567,-0.02798,0.074051,-0.13001,-0.1045,-0.23204,0.099534,0.048561,0.22708,0.023017,-0.078972,-0.10447,0.074069,-0.13,-0.027969,0.12504,0.099564,-0.18098,0.074057,0.15056,-0.15546,0.25252,0.58407,-0.71651,-0.64002,0.099534,0.3801,0.30356,0.38008,0.17607,0.048536,-0.10451,0.099564,-0.35953,-0.10445,-0.10447,-0.079002,-0.23205,0.074081,0.099595,-0.002454,0.074026,0.048518,-0.12999,-0.053458,0.074051,0.023017,0.3036,0.32913,0.2271,-0.25754,-0.078984,-0.12998,-0.23202,-0.23204,-0.35952,0.55862,-0.23199,0.15059,0.074051,0.12504,-0.027987,-0.12999,-0.38501,-0.002461,0.099559,0.4056,-0.10449,0.1506,-0.078972,-0.20647,-0.18102,-0.15553,-0.18097,-0.027993,0.15059,0.35458,0.12506,-0.027987,0.023047,0.17611,-0.18101,-0.25752,-0.1555,-0.23203,0.099559,0.20157,0.22712,0.38013,0.099564,-0.35956,-0.13002,-0.053451,-0.027938,-0.027969,-0.027993,0.58408,-0.2575,-0.30845,0.45661,0.022998,-0.30852,-0.33404,-0.25754,0.83908,-0.18099,0.55859,-0.25745,-0.10445,-0.15543,-0.027974,-0.002472,0.048531,-0.10451,0.32903,-0.15545,-0.002467,0.099583,0.2271,0.12506,-0.28303,0.15058,-0.13002,-0.41059,0.12509,0.27809,-0.13002,-0.053482,-0.002461,-0.10448,-0.15553,-0.027944,0.1506,0.074051,0.04858,0.45664,0.099546,-0.002472,0.099534,-0.027969,-0.30856,-0.23204,-0.20648,-0.002479,0.023054,0.12507,0.20156,-0.15548,-0.078972,0.074062,0.15056,0.09954,0.17604,-0.15552,-0.385,0.32907,-0.078959,0.30356,0.12505,0.38006,-1.2521,0.023035,0.45656,-0.43603,-0.2065,0.58409,0.1506,-0.078984,0.15055,0.12506,-0.10448,-0.18098,0.074081,-0.5126,-0.43611,0.099564,0.48218,-0.053506,-0.13001,0.20161,0.12508,-0.002454,-0.10447,-0.10449,0.048549,0.09957,0.17607,0.074051,-0.002454,-0.20653,-0.15551,-0.25751,-0.13,-0.20652,-0.053476,0.20156,0.3036,-0.027938,-0.027931,0.023084,0.023005,-0.002491,0.17605,-0.51257,0.15055,0.048561,-0.027944,-0.18095,0.35458,0.17606,0.15055,0.20155,-0.28303,-0.7166,-0.23205,0.50764,0.50768,-0.027969,0.17606,0.17609,-0.053451,-0.5126,-0.38508,-0.00243,0.023059,0.17605,0.25259,0.099583,0.32913,0.15056,-0.15551,-0.13,-0.027993,-0.13,0.023047,0.12505,-0.053451,-0.002461,0.20155,0.25255,-0.25748,0.48205,-0.71653,-0.48702,0.023041,0.5076,0.17605,0.58408,0.12507,-0.48699,-0.12997,-0.053488,-0.10451,-0.078966,0.099515,0.20156,0.32909,-0.15547,-0.078984,-0.30851,0.22708,0.48213,-0.28305,-0.7166,0.17606,0.35461,0.12505,0.12504,0.20159,0.09957,-0.2065,-0.20652,0.099588,-0.33405,-0.027993,-0.053495,-0.078923,0.15055,0.22707,-0.027987,-0.053464,-0.10448,0.22704,-0.23202,-0.4615,-0.13001,0.35458,0.3036,0.32912,0.35457,-0.8185,-0.283,0.81357,-1.6346,-0.25752,0.17605,0.40558,0.43107,0.17608,0.50756,0.048549,-1.048,-0.12999,-0.25755,0.22702,0.12505,0.3291,-0.15547,0.17613,0.6607,0.048536,-0.69117,-0.30858,-0.18098,0.074075,0.40567,0.074069,-0.13,0.048555,0.12506,0.023065,-0.078996,-0.2065,-0.25754,0.048531,0.048555,0.17606,0.074069,0.15055,0.023059,-0.1555,-0.1555,0.17603,-0.15548,-0.2575,0.68611,-0.48697,0.099559,0.1506,0.12505,-0.15552,0.048525,-0.079008,0.09951,-0.10448,-0.23197,0.15059,0.63511,-0.48699,-0.12998,0.099521,-0.053476,0.17606,-0.053495,-0.30855,0.12501,-0.10445,0.22713,0.15055,-0.1555,0.074057,-0.0535,-0.2065,-0.12998,0.074051,0.074057,0.2016,0.074038,0.15056,0.099577,0.023035,-0.18101,-0.33401,-0.10452,-0.10452,0.12507,0.20156,-0.078959,0.25261,-0.053451,-0.10452,-0.23199,0.15054,-0.053482,0.074026,-0.002454,0.60967,-0.691,-0.487,0.02301,0.022998,0.074013,-0.20653,-0.12997,0.20156,0.048536,0.22711,0.15056,0.25258,-0.12998,-0.1555,0.15059,-0.002443,-0.58914,-0.33406,-0.05347,0.27811,0.35461,0.20159,0.30365,0.023065,-0.4871,-0.38508,-0.23202,0.17607,0.15057,0.22711,0.2271,0.17607,-0.053482,-0.1045,0.023023,-0.35954,-0.30855,-0.23202,0.30356,-0.25752,-0.027907,0.73716,-0.23197,0.40556,-0.33397,-0.027974,0.25256,-0.58902,0.78812,0.27807,-0.053464,-0.23195,0.15054,-0.053525,-0.053476,-0.027974,-0.13,-0.38508,0.074051,0.25263,0.30361,0.32913,-0.02795,-0.30857,-0.30854,-0.2065,-0.38507,0.048549,0.048549,0.17606,-0.053506,0.48219,0.43116,0.074062,-0.10449,-0.10451,-0.20652,-0.28305,0.023005,0.099546,0.048543,0.22707,0.099564,-0.3085,0.07402,-0.10448,-0.18097,-0.41051,-0.10445,-0.41044,1.1451,-0.10447,0.15057,0.048531,0.30353,-0.43603,-0.15551,-0.1555,0.12508,0.048573,0.17607,0.12507,0.074062,0.048536,-0.23201,-0.28302,-0.18103,-0.027969,0.27809,0.099564,-0.078972,0.023023,0.15057,0.1761,-0.28303,-0.10452,-0.35956,0.048506,0.20163,-0.25748,-0.053519,0.45664,0.12506,0.27811,-0.07899,-0.078972,-0.33405,-0.20651,0.023029,0.35464,0.38013,0.074062,0.20155,-0.41054,-0.13,-0.028029,-0.94608,-0.30849,-0.002436,0.48211,0.023047,1.2982,-0.078984,0.099546,0.60955,-1.8131,-0.74205,-0.30848,0.45657,0.2016,0.40557,0.45659,0.30356,-0.027998,0.12506,0.048555,-0.6146,-0.69112,-0.23202,0.32913,0.38015,0.20161,0.12507,-0.10452,-0.12999,-0.10449,-0.1045,0.12508,0.12504,0.17604,-0.13,-0.027993,0.048531,0.048567
0.22701,-0.66555,0.023054,0.20152,0.22701,0.20159,-0.25744,0.2271,0.074051,-0.00251,-0.02795,-0.027998,-0.028011,-0.28299,0.023047,-0.2065,-0.41051,0.17608,0.35465,-0.15551,0.023023,-0.10448,0.12505,-0.079002,0.023047,0.023035,0.099588,0.15057,0.15056,0.12508,-0.12998,-0.18103,-0.12999,-0.20654,-0.12999,0.22708,0.023041,-0.23194,0.35462,0.15054,0.09954,-0.61451,0.22704,-0.20652,-0.385,0.30356,0.30355,-0.334,0.32912,-0.23194,0.17601,-0.053506,-0.15543,-0.002497,0.12502,0.023041,0.12507,0.099559,-0.05347,-0.002461,-0.053488,-0.027969,-0.05347,-0.33402,-0.25754,0.048536,0.1506,0.099564,0.2016,0.20157,-0.15549,0.023023,0.17605,-0.25753,0.048561,0.12507,-0.1045,-0.027962,0.12505,-0.002472,-0.027944,-0.02798,-0.15551,0.63507,-0.76756,-0.81854,0.35462,0.22709,0.023054,0.30355,0.048518,-0.079039,0.048536,0.45656,-0.84406,-0.027969,0.22712,0.3546,0.35463,0.48219,0.17603,-0.3341,-0.71656,-0.38501,-0.002528,0.023047,0.17609,0.22709,0.099552,-0.10449,-0.12999,-0.053488,-0.05347,-0.10449,-0.002467,-0.181,-0.002443,0.099552,0.43115,0.074081,-0.078977,0.22701,-0.38506,-0.56354,-0.20649,-0.2065,0.73717,0.2271,0.22705,-0.10444,0.048512,-0.20649,-0.002443,-0.30851,0.22704,0.35456,-0.66553,-0.053415,0.5076,0.40561,0.074057,-0.33409,-0.25754,-0.33405,0.074033,0.15062,-0.027931,0.20158,0.17609,-0.079008,-0.13001,0.20158,0.22709,-0.10448,-0.38508,-0.25752,-0.283,0.12504,0.17607,0.35456,0.099559,-0.385,-0.002467,-0.027998,-0.18102,0.09957,-0.078972,-0.23195,0.12509,0.66064,-0.283,0.17601,0.023017,-0.38504,-0.027931,0.17604,-0.15548,0.04858,0.099546,0.3036,0.12503,-0.2575,-0.23204,-0.76764,0.17606,0.40563,0.20161,0.099577,0.63517,0.12507,-0.46154,-0.43607,-0.028005,-0.13005,0.12507,-0.15549,0.048549,0.12507,0.38011,-0.002443,-0.23197,0.15055,-0.10453,-0.28303,-0.002485,-0.30849,0.099577,-0.053458,0.22707,0.50762,-0.15548,-0.027974,0.15049,-0.48707,-0.46151,0.27804,0.15063,-0.002472,0.2271,0.074057,0.55855,-0.8695,-0.23196,-0.20654,-0.23205,-0.18105,0.48216,-0.002485,0.38011,0.099588,-0.10449,0.023047,0.15055,-0.07899,-0.2065,-0.30851,0.27814,-0.078947,0.17607,0.40555,-0.20652,-0.28303,-0.12999,-0.28305,0.20154,0.074069,0.17609,0.20155,-0.23194,-0.12998,0.12504,0.32909,0.32906,-0.13003,-0.38501,-0.35952,-0.002443,0.12509,0.43113,0.35454,-0.30847,-0.283,0.048512,0.074002,-0.07899,-0.078947,-0.28301,0.17604,0.2526,0.15054,0.25258,-0.18101,-0.25755,-0.15546,0.074069,0.099583,-0.20651,0.048555,0.15059,-0.027987,0.17606,-0.078996,-0.10449,-0.33404,-0.002503,0.048555,-0.002461,-0.078972,0.20158,0.32911,-0.30851,0.048512,0.048518,-0.53802,0.176,-0.053458,-0.15544,0.27809,0.3036,-0.20649,-0.28298,0.27802,0.55853,-1.0225,0.048512,-0.028011,0.22709,0.22705,0.099552,-0.002423,0.22711,0.20156,-0.43612,-0.58914,0.1251,0.15061,0.48219,0.023065,-0.079008,-0.053495,0.12506,0.22706,-0.078959,-0.18106,-0.30858,-0.53797,-0.20648,0.07402,0.12507,0.32905,0.3291,-0.18092,0.099546,-0.18102,-0.28305,-0.10449,0.1506,0.099583,0.32912,0.023035,0.15052,-0.28301,-0.12998,-0.18099,-0.35956,0.023041,0.023059,0.20159,0.35465,0.023035,-0.15557,-0.13004,-0.078977,-0.12998,-0.002448,0.30362,0.074062,0.35462,-0.027931,-0.0535,-0.4105,0.60959,0.20153,-0.94612,-0.079008,-0.43599,0.12504,0.40561,0.099564,0.12503,-0.002479,-0.027969,0.6606,-0.15548,-0.30851,-0.15546,-0.12994,-0.12994,0.15055,0.40558,-0.10447,-0.48702,0.099546,-0.30857,0.074013,0.17608,0.40564,0.074026,-0.027956,0.074062,0.12505,-0.13002,-0.28308,-0.92062,0.074075,0.25259,0.048592,0.2271,0.55859,-0.18099,-0.63997,0.176,0.12504,-0.30854,-0.15549,-0.02798,0.43108,-0.5125,0.30365,0.099583,0.17603,0.15045,-0.053506,-0.8951,0.074038,0.15057,0.63517,0.17609,0.17607,-0.15549,-0.181,-0.027974,-0.053482,-0.15549,0.048525,0.20163,-0.15549,-0.79316,-0.10447,0.27806,0.5586,0.17612,0.4821,-0.41055,-1.0481,-0.078959,0.73714,0.6351,-0.56347,0.89011,-0.13004,0.78804,-1.1501,0.89009,0.25256,-2.0171,0.09957,0.25255,0.20158,0.6861,0.63507,0.99208,-0.2065,-0.66551,-0.027969,-0.002467,-0.61446,-0.43602,-0.18101,-0.20647,0.25259,0.68611,-0.079014,-0.58902,-0.41052,0.048536,0.023035,0.60966,0.023017,0.02298,-0.20655,0.45661,-0.20646,0.02301,-0.30852,-0.18099,0.099608,0.023078,0.30361,-0.053458,-0.20652,0.074038,0.074002,-0.15553,-0.76758,0.43108,-0.053421,0.22706,0.17609,0.40562,0.20158,-0.15551,-0.13002,-0.23201,-0.38503,0.099515,0.099583,0.32721,0.021195,0.046696,0.66055,-0.078886,-0.53801,-0.38499,0.27809,0.15052,-0.41056,-0.079026,-0.002461,0.27809,0.17609,0.43116,-0.02798,-0.23203,-0.12996,-0.20653,-0.56361,-0.002448,0.53318,0.12512,-0.002479,-0.002461,0.099521,0.048518,0.048555,-0.13001,-0.18102,0.099546,-0.1555,0.17607,0.17607,0.35464,0.17607,-0.43605,-0.078984,0.12505,-0.1555,-0.002472,-0.053482,0.048531,-0.23198,0.53314,0.048555,0.099534,-0.30851,0.12507,-0.13002,-0.10452,-0.002443,0.048555,-0.079008,0.40563,0.099552,0.023059,0.12505,-0.23199,-0.41054,-0.25753,0.53307,-0.12995,0.15055,0.48212,0.074057,-0.15549,-0.25753,-0.28305,-0.07899,0.09957,0.27809,0.40564,0.27809,0.048561,-0.002467,-0.1555,0.20152,-0.078996,-0.58903,-0.20653,-0.053458,0.48213,0.22708,0.58413,0.048536,-1.1501,0.048506,0.074038,-0.10452,0.27807,0.35457,-0.12994,-0.12994,0.30358,0.27811,0.048518,-0.20652,0.048518,-0.23201,-0.18098,0.023059,0.048549,-0.002491,0.099588,0.023023,-0.10448,-0.10453,-0.10449,-0.078947,0.27809,0.15056,0.22711,-0.078996,0.12504,0.30358,-0.12998,-0.35956,-0.18102,-0.74206,-0.1555,0.048585,0.17608,0.023078,0.35457,0.60957,-1.099,-0.027987,-0.12998,0.048512,0.074044,-0.002479,0.3036,0.023054,0.12509,0.20157,-0.18103,0.15056,-0.23197,-0.48705,-0.38506,-0.079002,-0.10446,0.15057,0.40562,0.35464,-0.25753,-0.10455,0.17609,0.12509,-0.33405,0.07402,0.074057,0.17607,0.12509,0.048536,-0.027944,-0.1045,-0.2065,-0.25753,0.023035,-0.15549,0.20159,0.20158,0.15056,-0.15551,0.17604,-0.027962,0.22704,0.27799,-0.71653,-0.46147,0.32908,0.27808,0.15057,0.63509,-0.53802,0.17604,-0.18101,-0.1045,-0.027993,0.15056,0.17607,0.20159,0.15058,-0.053476,-0.078959,-0.1555,-0.1045,-0.25753,-0.002448,0.023041,0.2271,0.20158,0.35465,-0.30854,-0.66566,0.048536,0.30363,0.0741,-0.18103,0.099564,0.02301,0.04858,0.35462,0.048536,-0.43603,-0.078996,-0.053464,-0.10452,-0.28298,-0.002485,0.53312,0.048549,-0.18093,0.09954,0.22704,-0.46153,0.27807,-0.43602,-0.3595,0.048525,0.27808,0.15056,0.25258,0.20158,-0.027969,-0.10449,-0.25754,-0.18101,0.023059,0.048549,-0.002479,0.023035,0.25261,0.17609,-0.15549,0.099552,-0.12999,-0.002467,-0.12999,-0.13002,-0.30857,0.074013,0.1506,0.20159,0.023078,0.32911,0.20162,-0.20653,-0.30854,-0.053495,0.15056,0.71158,-0.86952,-0.12994,-0.07899,0.25254,-0.25753,-0.25751,-0.13002,0.20156,0.38011,-0.15546,0.3291,0.023035,-0.02795,0.074013,-0.20648,-0.1045,-0.078984,0.074062,0.12507,0.023017,0.023023,0.17608,0.048549,-0.002461,0.099546,-0.33407,-0.078977,-0.28305,0.023059,0.22708,0.2526,0.12507,-0.23202,-0.078947,-0.0535,-0.12998,-0.053488,0.22709,0.15059,0.074038,-0.078984,-0.002479,-0.053495,-0.002454,0.09957,-0.30853,-0.18098,-0.002467,0.09954,-0.0535,0.023059,0.04858,0.17606,0.023029,-0.02798,-0.51254,-0.053495,0.25254,0.12509,0.15054,0.12508,0.22705,-0.13,0.048536,-0.23201,-0.25753,-0.15551,0.20158,0.30357,0.30363,0.38016,0.023084,-0.33405,-0.43607,-0.38506,-0.18101,-0.02798,0.27811,0.2526,0.099564,0.4566,0.023078,-0.25753,-0.28303,-0.15553,-0.28302,-0.1555,0.17609,0.099552,0.048536,0.30361,0.22708,-0.38502,-0.283,-0.25751,0.099534,0.022992,-0.35946,0.32908,0.048518,0.1506,0.25256,-0.20646,0.25256,-0.10452,-0.2575,-0.30851,0.074038,0.048536,0.023054,0.35463,0.099559,0.099546,-0.10451,-0.28299,-0.13001,-0.25752,0.12505,0.15054,0.25256,0.27808,0.023047,0.20158,-0.027962,-0.23201,-0.48705,-0.027969,-0.002491,-0.053519,0.074038,0.27811,0.27814,0.023078,-0.15549,-0.23202,-0.15549,-0.10452,-0.002461,0.30357,0.099534,0.2016,0.074051,-0.23203,-0.10448,-0.027987,-0.38503,-0.078953,0.17606,0.20158,-0.002467,0.15057,0.074062,0.023017,-0.078972,-0.12998,-0.30854,-0.181,0.12507,0.27812,0.20157,0.074044,0.15054,-0.25751,-0.385,-0.15552,-0.10449,0.099528,-0.027993,0.2271,0.30361,0.2526,0.074075,-0.079008,-0.05347,-0.02798,-0.20653,-0.28301,-0.027944,0.09954,1.0686,-0.538,-0.10446,-0.20648,-0.027969,0.20158,-0.10454,-0.02798,0.099546,0.17609,0.12504,-0.23201,0.4311,-0.64003,0.023017,-0.027974,-0.25751,-0.13,-0.18097,0.22709,0.2781,0.22707,0.074026,-0.12998,-0.28305,-0.002467,-0.027956,-0.002461,-0.02798,-0.18104,-0.10451,0.3036,0.27815,0.15057,-0.38503,0.023035,-0.15549,0.25253,-0.30851,0.27809,0.20161,0.27809,-0.002497,-0.41055,-0.10449,0.099521,-0.027956,-0.1555,-0.027956,-0.30847,0.96664,0.099588,-0.28296,-0.232,0.099521,-0.053476,-0.002516,0.30356,-0.28301,-0.66548,0.27808,0.38008,0.1761,-0.079014,-0.10449,-0.18104,-0.23202,-0.10448,0.27809,0.22712,0.27812,-0.10449,-0.20652,-0.15549,-0.027944,-0.002467,-0.25751,-0.23202,-0.002503,0.25262,0.20159,0.25259,-0.078984,-0.078996,-0.078984,-0.18098,-0.10452,-0.078996,0.1761,0.074051,0.12505,0.30362,0.12507,-0.07899,-0.027987,-0.15549,-0.079026,-0.38503,-0.38499,0.15058,0.3036,0.6606,-0.10449,-0.15551,-0.12998,-0.18101,-0.20652,-0.002454,0.099583,0.12506,0.15057,0.25261,0.074057,-0.027969,-0.10448,0.023047,-0.078984,-0.33404,-0.079002,0.022998,-0.002461,0.2526,0.30361,-0.053464,-0.18101,-0.078972,-0.12997,-0.15552,-0.053513,0.1761,0.12505,0.12509,0.2016,0.55859,-0.51252,-0.10448,-0.053482,-0.13002,-0.15554,-0.13001,0.023041,0.2271,0.17609,-0.20648,-0.10449,-0.002461,-0.12999,-0.002485,0.074075,0.17606,0.15055,0.2271,0.074062,-0.20653,-0.053451,-0.28304,-0.20656,0.074069,0.17607,0.32907,-0.12994,0.12509,0.15059,0.09957,-0.18103,0.22699,-0.38501,-0.13002,0.17606,-0.10443,-0.053421,0.22707,0.099552,-0.23205,-0.078977,0.074069,-0.12999,-0.078972,-0.027962,0.023023,0.09957,0.17606,0.12508,-0.027969,-0.053519,0.023041,-0.23202,-0.2575,0.2271,-0.027969,0.12509,0.38012,0.048518,-0.35957,-0.28305,-0.02795,0.048536,-0.002467,0.023029,0.3036,0.074106,0.38015,0.22708,-0.15546,-0.028005,-0.20651,-0.20655,-0.20653,0.023041,-0.028011,0.45661,0.02309,-0.12998,-0.25755,0.22707,-0.027931,-0.10447,-0.15551,-0.078977,0.32905,0.023059,0.15058,0.17609,-0.002491,-0.20653,-0.436,-0.35955,-0.053488,-0.23199,0.4311,0.15056,0.4311,0.12506,0.12506,-0.05347,-0.20649,-0.28305,-0.23204,-0.12999,0.0741,0.074062,0.3036,-0.053488,0.023054,0.15056,-0.18102,-0.46158,0.074038,0.15059,0.2526,0.048555,-0.05347,-0.30858,0.20162,0.17607,-0.053482,-0.33404,-0.002491,0.12508,-0.053495,-0.13,0.048555,0.20159,-0.078966,0.07402,-0.10448,-0.25752,-0.15548,0.12504,0.3291,0.30359,0.1251,-0.05347,-0.002472,-0.078996,0.12505,0.022992,-0.18097,-0.20653,-0.053458,-0.078984,0.20161,0.15056,0.074038,-0.10449,0.023065,-0.2065,-0.027956,0.048555,0.099534,-0.027993,0.2271,-0.02798,-0.053458,-0.15553,-0.20652,-0.10447,-0.053476,-0.078984,0.32914,0.30361,0.40565,-0.027962,-0.15551,-0.23201,-0.2575,-0.20652,-0.002485,0.07402,0.17609,0.074038,0.1506,0.074062,0.25254,-0.23197,-0.74204,-0.18099,0.27803,-0.002491,0.30358,0.63509,0.099595,-0.2065,0.12503,-0.053464,-0.92051,-0.30854,0.048561,0.22705,0.40561,0.048512,0.099521,0.40561,0.048561,-0.15548,-0.51259,-0.43606,-0.20652,-0.053458,0.45663,0.3291,0.32913,0.023059,0.20161,-0.25754,-0.078984,-0.28305,-0.15551,0.12505,0.099552,0.099552,0.15056,0.12508,-0.078947,-0.078996,-0.181,-0.283,-0.002454,0.023029,0.22708,0.074051,0.12505,0.17608,-0.002454,-0.20649,-0.002461,-0.078996,-0.10448,0.048549,0.048506,0.27811,0.2781,0.15056,-0.18099,-0.20652,-0.25754,-0.28303,0.074069,0.22712,0.12505,-0.38508,-0.23204,0.40566,0.1506,0.099559,-0.053476,-0.15549,-0.07899,0.099552,0.074051,0.099546,0.07402,0.074051,-0.05347,-0.1555,-0.10448,-0.028011,-0.10449,0.074069,0.048561,0.023059,0.25259,0.32908,0.074013,-0.53801,-0.51252,0.22701,0.25257,0.17604,0.20159,-0.027993,-0.05347,-0.1555,-0.10447,0.1251,0.15057,-0.12999,-0.15551,-0.079008,-0.078959,0.30363,0.60961,-0.33401,-0.181,-0.20652,-0.15549,-0.053476,0.074069,-0.002461,0.17609,-0.028005,-0.20654,-0.027969,-0.078984,0.1251,0.15057,-0.23201,-0.13001,0.099546,0.2526,-0.053482,0.074057,0.25259,-0.15548,-0.027993,-0.1555,-0.20654,-0.1045,-0.028005,-0.00243,0.45663,0.12509,-0.027974,-0.078972,-0.002461,-0.1045,-0.23199,-0.027974,-0.33406,0.20159,0.17609,0.12507,0.15057,-0.07899,-0.1045,-0.05347,-0.18101,-0.33405,-0.15552,0.17603,0.35464,0.3291,0.17607,0.15059,0.074075,-0.18098,-0.30854,-0.20656,-0.181,-0.15546,-0.07899,0.25257,0.22705,0.25255,-0.20648,-0.4615,-0.053482,0.15052,-0.053451,0.35461,0.074026,0.17611,0.17609,-0.078984,-0.30855,-0.027956,-0.28302,-0.10449,-0.053482,0.12506,0.048561,0.15054,0.099577,0.048573,-0.18102,-0.078972,-0.23202,-0.002472,-0.002448,0.32909,0.27812,-0.20656,-0.10449,-0.002472,0.15062,0.099552,-0.38506,-0.35956,-0.078959,0.25256,0.17609,0.17606,0.023078,-0.002461,-0.05347,-0.13002,-0.28302,-0.027993,-0.027938,0.15056,0.4566,-0.30849,0.15057,-0.10449,0.048567,-0.053495,-0.35956,-0.027993,-0.232,0.3291,-0.05347,0.3291,0.12509,0.048561,0.023047,-0.053488,-0.1555,-0.25754,-0.13002,0.32913,0.30363,0.22712,-0.18102,-0.30858,-0.1045,-0.10447,-0.078977,0.048555,0.074044,0.20157,0.099577,0.099552,0.12507,-0.13,-0.053482,-0.078953,-0.078984,-0.078996,-0.078972,0.20156,-0.027974,0.17607,0.099534,0.20157,-0.15548,-0.43601,-0.33401,-0.053488,-0.18103,0.50757,0.22709,0.17609,-0.027969,-0.027944,-0.078972,-0.027962,-0.28301,-0.0535,0.048543,0.20158,-0.15553,0.17608,0.074075,-0.15553,-0.053451,0.048561,0.023041,-0.10447,-0.079008,-0.13002,-0.13001,0.17606,0.30365,0.074075,-0.002472,-0.181,-0.25756,0.048561,0.12508,-0.10452,0.12507,0.074038,-0.053464,-0.002467,-0.12999,0.023035,-0.20653,-0.232,0.074062,0.12505,0.43111,0.22708,0.023072,-0.053482,-0.2575,-0.20648,-0.28303,-0.13001,0.023035,0.22707,0.17606,0.38013,0.12507,-0.283,-0.02798,-0.027969,-0.15549,-0.027974,0.023041,0.099559,0.048536,0.20159,0.22708,-0.027962,-0.33405,-0.13001,-0.13,0.023041,0.15057,0.15056,0.20159,0.20157,-0.027962,-0.12999,-0.18103,-0.053488,-0.1045,-0.12997,0.074062,0.023029,-0.053482,0.12505,0.023035,-0.053451,-0.002467,0.023047,0.074038,-0.10448,-0.15546,0.2271,0.22704,0.22707,0.32908,-0.23201,-0.23195,-0.18099,-0.23203,0.15057,0.15056,0.20158,0.074033,0.048536,0.048543,-0.181,-0.078977,0.074057,-0.12998,-0.002467,0.099534,0.099552,-0.181,0.38014,0.38014,-0.10448,-0.25754,-0.25756,-0.25753,-0.15553,-0.053488,0.2526,0.22709,0.27813,0.099564,0.023054,-0.078984,-0.23203,-0.23203,-0.13,-0.002503,0.27812,0.15058,0.2526,-0.181,-0.25753,-0.13,-0.10447,-0.1555,-0.078977,-0.002448,0.43107,-0.12995,0.17607,0.023054,-0.20647,0.023029,-0.23202,-0.15551,-0.053506,0.074057,0.2526,0.074051,-0.002467,0.074081,-0.20652,-0.07899,-0.027944,-0.2065,-0.25754,0.074062,0.15057,0.074038,0.09957,0.074051,-0.078972,0.023059,0.099559,-0.28306,-0.18099,-0.027974,0.048512,0.15056,0.22712,-0.027974,-0.027974,-0.053464,-0.027969,-0.15551,-0.078996,0.12508,0.17609,-0.12999,0.12504,0.20155,-0.1045,-0.43601,-0.078977,-0.25751,-0.002479,-0.079008,0.20159,0.12507,0.20159,0.074044,-0.002491,-0.027962,-0.18101,-0.51258,-0.23204,0.048543,0.2271,0.32913,0.099564,0.099564,-0.20652,-0.12998,0.074038,-0.10448,0.074062,-0.23205,-0.30854,0.17604,0.1506,0.20159,-0.053482,0.023035,-0.1045,-0.181,-0.053488,-0.053464,0.15057,-0.002491,0.30361,0.15059,-0.28304,-0.18101,-0.1045,-0.12998,-0.078977,0.048531,0.15057,0.099564,0.22709,0.2271,0.074033,0.048555,-0.078953,-0.30856,-0.10449,-0.027993,-0.027969,-0.053458,0.30361,0.1506,-0.02798,-0.18103,-0.18101,0.023054,-0.10451,-0.13,0.12508,0.2526,0.12508,0.12504,-0.053495,0.048555,-0.078972,-0.30852,-0.053476,-0.053495,-0.053464,0.074038,0.048561,0.15057,-0.13001,-0.053476,0.048561,-0.13,-0.232,0.12504,-0.002461,-0.12997,0.074062,0.12508,0.048525,0.38011,-0.10452,-0.30852,0.15057,-0.12999,0.25259,0.074051,-0.053488,-0.002472,0.023072,-0.002472,-0.002436,-0.23203,-0.20652,-0.078972,0.12504,0.12508,0.27811,0.43112,0.074069,-0.23203,-0.20651,-0.25753,-0.1045,0.023059,0.20155,-0.002467,0.17607,-0.027962,0.023047,0.12505,-0.15548,-0.2065,-0.079002,0.023047,0.15056,0.15057,0.50762,-0.15548,-0.027956,-0.027969,-0.13001,-0.2065,-0.20652,-0.002461,0.15056,0.27812,0.099546,-0.002485,-0.10445,0.074051,-0.027974,-0.28303,-0.18103,-0.002479,0.27812,0.22709,-0.053488,-0.25755,-0.10449,0.20161,0.15058,-0.23201,-0.15548,0.074038,0.099564,0.17609,0.20158,0.099559,-0.078959,-0.002479,-0.13,-0.12999,-0.25756,-0.15549,0.12508,0.099534,0.3801,-0.027956,-0.10451,-0.078996,-0.10447,-0.12999,0.02301,0.048561,-0.12994,0.12505,0.25261,0.099564,0.15052,-0.078977,0.048536,-0.46159,-0.30853,-0.053476,0.27809,0.048549,0.099583,-0.027993,-0.23204,0.099577,-0.053488,-0.28301,0.023054,-0.002472,0.12507,0.22708,0.12507,0.20159,-0.13,-0.078984,-0.18101,-0.23204,-0.12999,-0.002448,0.023041,0.074044,0.15057,0.048536,0.048549,-0.20651,-0.2065,-0.20653,-0.027962,0.17607,0.27811,0.074075,0.22708,0.048536,-0.20651,-0.027969,-0.078996,-0.13001,-0.12999,0.023023,0.17607,0.17609,0.074038,0.023041,-0.12999,0.023023,-0.05347,-0.28302,-0.13001,-0.002467,0.2271,0.2526,0.074038,-0.07899,-0.13002,-0.05347,0.048549,-0.181,-0.027956,0.048543,0.17607,-0.002485,0.048561,0.048567,-0.053488,-0.181,-0.18099,-0.20652,-0.20653,-0.002448,0.32909,0.12506,0.15058,0.22708,-0.15549,0.023035,-0.12999,-0.2575,-0.078966,0.17604,0.099559,0.048543,0.074044,0.074062,-0.18099,-0.12998,-0.027969,-0.15553,-0.23201,0.20159,0.30361,0.15059,0.023035,-0.002497,-0.078959,0.1761,0.09957,-0.43607,-0.33407,-0.18101,0.38013,0.048543,0.2271,0.15058,0.099559,-0.002454,-0.002461,-0.13001,-0.28302,-0.078996,0.023041,0.04858,0.3546,0.023035,-0.02798,0.048531,-0.13,-0.12998,-0.002479,-0.078977,0.17607,0.27808,0.048592,-0.027944,-0.10444,-0.053525,0.048531,-0.13002,-0.10449,0.074038,0.15057,0.12506,0.12505,0.023072,-0.10448,-0.15548,-0.13,-0.18101,-0.20649,0.17606,0.20159,0.22709,-0.053495,-0.23203,-0.46159,-0.027944,0.099559,-0.078984,0.12507,0.22708,-0.053476,0.27812,0.20157,-0.027974,-0.078972,-0.07899,-0.15553,-0.33405,-0.23201,0.15059,0.27808,0.074044,0.023054,0.074062,0.048543,-0.053488,-0.053482,-0.2065,-0.13,-0.18101,0.22706,0.15056,0.15059,0.12508,0.12504,-0.1045,-0.3595,-0.002503,-0.053476,-0.10445,0.12505,0.09957,0.15055,0.023059,-0.053495,-0.18101,0.023047,0.20158,-0.15551,-0.20653,-0.079063,0.25262,0.22717,-0.33407,-0.28305,0.38014,0.2271,0.09957,0.023017,-0.078996,-0.002479,-0.15553,0.27812,-0.002448,-0.18102,-0.078953,-0.053482,-0.25754,-0.053476,0.17607,0.2271,0.12505,0.099552,0.099564,-0.15553,-0.181,0.074051,-0.23201,-0.15549,0.048531,0.099546,0.074069,0.15058,0.048543,-0.12998,0.023047,-0.1045,-0.25752,-0.10447,-0.027993,0.074087,-0.05347,0.099546,0.22708,0.099564,0.048549,-0.053495,-0.43607,0.023041,0.048518,-0.15551,0.32912,0.35463,0.27812,0.099552,-0.232,-0.027944,-0.23201,-0.12998,0.048525,-0.07899,0.09957,0.27808,-0.05347,-0.12999,-0.1045,-0.18098,-0.18101,-0.078984,0.048561,0.22707,0.15055,0.12508,0.074051,0.12504,-0.0535,-0.4105,0.25252,-0.33402,0.074057,0.22707,0.023041,0.2526,0.048543,0.023047,-0.002497,-0.10449,-0.12998,-0.25754,-0.078966,0.099546,0.17608,0.2271,0.15059,-0.18101,-0.15553,-0.20652,-0.15551,-0.20652,0.15054,0.074051,0.25261,0.17609,0.2526,0.074075,0.023035,-0.28302,-0.33405,-0.053476,0.12504,0.099564,0.09954,0.048561,0.023047,-0.10449,-0.053495,-0.12999,-0.10449,-0.053476,-0.02798,-0.078972,0.22707,0.099552,0.20159,-0.078984,0.074062,-0.20651,-0.20649,-0.20652,-0.002448,0.25259,0.15058,0.17606,-0.18101,-0.027956,-0.002454,-0.15551,-0.10449,-0.027969,-0.053495,0.099546,0.15056,0.2271,-0.002485,-0.12998,-0.13002,0.074087,0.099564,0.099577,0.074051,0.15056,-0.053464,0.20158,-0.027962,-0.15551,-0.078984,-0.13,-0.38508,-0.35956,-0.079008,0.22712,0.27809,0.2016,0.20158,0.048555,-0.053476,-0.25753,-0.078959,-0.002491,-0.002454,0.17608,0.12505,0.15058,0.22708,-0.053482,-0.10449,-0.25754,-0.61455,-0.10449,0.048536,0.048531,0.074026,0.40563,0.32915,-0.18103,-0.43607,-0.18102,0.023059,0.023054,0.17608,0.27812,0.023041,0.074044,0.2526,0.023072,-0.027987,-0.30855,-0.35959,-0.46157,-0.027993,0.074051,0.22709,0.38011,0.099588,-0.1555,-0.002461,0.023054,-0.027998,-0.078984,0.023035,0.074033,-0.002448,0.17607,0.074069,-0.15548,0.048506,-0.053476,-0.283,-0.15551,0.048543,0.35459,0.048555,0.09957,0.023035,-0.12999,0.099559,-0.05347,-0.078959,-0.053488,-0.078996,-0.079002,-0.053495,0.12507,0.30362,0.074062,-0.15547,-0.10449,0.074013,-0.232,0.15054,0.023059,-0.078959,0.12503,0.17607,0.048536,-0.078972,-0.1045,-0.20652,-0.12998,-0.027969,0.27812,0.099552,0.22706,0.048543,-0.027993,-0.053451,-0.43606,-0.28305,-0.15549,0.09954,0.27812,0.25263,-0.002472,-0.10449,0.099577,-0.13001,-0.2065,-0.15549,-0.027962,-0.027969,0.17607,0.15057,-0.053464,0.32912,0.12507,-0.053458,-0.4106,-0.38506,-0.13,0.27811,0.32912,0.15056,0.15059,0.074038,-0.12998,-0.23203,-0.13,-0.1555,-0.10449,0.048543,-0.027962,0.20158,0.15057,0.15058,-0.078984,0.048555,-0.10449,-0.18101,-0.0535,-0.027969,0.22709,0.15056,0.12509,-0.027998,-0.002454,-0.027969,-0.078984,-0.2065,-0.078984,0.099552,-0.027974,-0.002467,0.17608,0.1761,-0.20651,-0.053476,-0.002448,0.09957,-0.053464,-0.23201,-0.002479,0.074044,0.25262,0.15054,-0.053488,0.1761,-0.002461,-0.25753,-0.181,-0.18102,0.1761,0.12506,0.099552,-0.027944,0.048555,-0.002503,-0.18102,-0.053476,-0.181,-0.027974,0.15057,0.048573,0.074038,0.074062,-0.002467,-0.10449,-0.053476,-0.10449,-0.053495,0.074069,0.25259,0.15054,0.17609,-0.002479,-0.078972,-0.15548,-0.053488,-0.10449,-0.002448,0.15056,-0.10449,-0.079014,0.12507,0.023041,0.048549,0.023065,0.12505,-0.10449,0.048549,0.074044,0.12508,0.074044,-0.1045,-0.10448,0.023041,-0.078984,-0.10446,-0.15553,-0.1045,0.074044,0.15058,-0.027944,-0.078984,0.074069,0.023047,-0.10449,0.048512,-0.15553,-0.2065,-0.053464,-0.002461,-0.02795,0.20158,-0.002461,0.048549,-0.002467,-0.079002,-0.23201,0.023029,0.074057,-0.15545,0.32908,0.074075,-0.10452,-0.20654,0.074038,0.30364,-0.18098,-0.02798,0.048561,0.25259,-0.027974,0.023059,0.023047,-0.002454,-0.10449,-0.20654,-0.181,-0.002472,-0.02798,0.1761,0.12505,0.074057,0.12507,-0.10449,0.048536,-0.15549,-0.078984,-0.33401,0.12505,0.3036,0.12505,0.048561,0.074044,-0.002461,-0.1045,-0.13,-0.13,-0.181,-0.027987,0.023047,0.20157,0.15058,0.12505,-0.05347,0.22711,-0.07899,-0.41057,-0.38508,0.15059,0.25257,0.12507,0.2781,0.074069,-0.13,-0.07899,-0.10449,-0.23202,-0.053446,-0.002479,-0.002467,0.09954,0.074069,0.32912,0.048573,-0.05347,-0.18103,-0.078959,-0.02798,0.023041,0.15057,0.12503,0.099577,0.20158,-0.2065,-0.10448,0.048512,-0.30852,-0.30851,0.048543,0.22708,0.12504,0.12505,0.12506,-0.078972,0.048543,0.048573,-0.18102,-0.33404,0.023023,0.20158,0.12507,0.12507,0.1761,0.048543,-0.13001,-0.23202,-0.002472,0.074087,-0.078984,0.023023,-0.18101,-0.079008,0.1506,0.048536,0.048555,0.12505,-0.30854,-0.10447,0.023041,0.22708,0.048549,0.099559,0.023041,-0.053458,-0.2065,-0.02798,-0.079002,-0.13001,-0.0535,0.15057,0.12507,0.15058,0.20158,-0.002472,-0.33401,0.074051,-0.078977,-0.13002,0.023054,0.22707,0.09954,-0.027969,0.17609,0.023041,-0.027962,-0.15548,-0.078972,-0.28303,-0.18099,0.023023,-0.13002,0.32913,0.17607,-0.181,0.20158,-0.053451,-0.002472,-0.18101,-0.027974,0.17606,-0.053482,0.17607,0.074062,0.074069,-0.20653,-0.181,-0.20652,-0.12996,0.074026,0.048555,0.023059,0.2271,0.12507,0.074038,-0.027969,-0.078996,-0.12998,-0.23203,0.074051,0.074038,0.023059,0.048531,0.2016,0.023047,-0.027969,-0.12999,-0.1045,-0.20652,-0.002479,0.2271,0.09954,0.048549,-0.078966,-0.1045,-0.002472,-0.13002,-0.23202,-0.12997,0.099552,0.12507,0.40563,0.1761,0.2781,0.048573,-0.1045,-0.25753,-0.23205,-0.28303,-0.027987,0.048567,0.048531,0.12507,0.15056,-0.027962,-0.078996,-0.002461,-0.28302,-0.10449,0.09954,0.22707,0.15057,0.099564,0.023059,0.048536,-0.078977,-0.027974,-0.25751,-0.33404,-0.078953,0.17606,0.099546,0.25259,-0.027987,0.048555,-0.10448,0.023047,-0.12998,-0.10449,-0.18104,-0.02798,0.12504,0.17611,0.048555,-0.078977,0.17609,-0.05347,-0.15549,-0.18101,-0.053495,0.17608,0.048543,0.099546,0.15054,-0.18099,-0.002479,0.023065,-0.13001,-0.35956,-0.002467,0.074051,0.099564,0.22708,0.20157,0.048561,0.099564,-0.053506,-0.2575,-0.079002,-0.10449,0.023059,0.20158,0.099546,0.2781,0.17607,-0.2065,0.048536,-0.2065,-0.15549,0.048549,-0.053476,0.023035,0.048525,0.43117,-0.027969,-0.33406,0.023065,0.15057,-0.35956,0.023041,-0.002479,0.023047,0.22708,0.048543,0.074051,-0.002461,-0.078959,-0.20652,-0.20652,0.074057,0.09954,0.12508,0.20157,0.099559,-0.002443,-0.02798,-0.13,-0.232,-0.1045,0.023041,-0.078947,0.15056,0.048573,0.20156,0.023017,-0.078972,-0.053476,-0.07899,-0.15548,-0.027993,0.048573,0.074044,0.09954,0.17609,-0.027969,-0.2065,-0.07899,-0.181,-0.25753,-0.002461,0.15057,0.25259,0.15056,-0.002467,-0.002479,-0.053482,-0.002461,-0.002448,-0.23201,-0.053495,0.17609,0.20157,0.09957,0.048531,-0.10447,-0.23202,-0.15551,-0.078984,-0.002454,-0.002454,0.20159,0.17609,0.15058,-0.002472,-0.15548,-0.079002,-0.10449,-0.18103,-0.232,-0.0535,0.17609,0.12505,0.2016,0.12504,0.048561,-0.181,0.023047,-0.10449,-0.07899,-0.053464,0.15056,0.099559,0.17606,0.12509,-0.078972,-0.12998,-0.30855,-0.20652,-0.027969,0.023023,0.074057,0.20159,0.25261,0.074051,-0.078977,0.023029,-0.15549,-0.002479,-0.23201,-0.053495,0.074062,0.09954,0.12509,0.074038,-0.02798,-0.07899,-0.027969,-0.053482,-0.15549,-0.002479,-0.078996,0.09957,0.12508,0.074051,-0.002461,-0.1045,0.048555,-0.078984,-0.05347,0.023023,-0.078984,0.15055,0.15057,0.30362,-0.13001,-0.10447,0.048567,-0.28303,-0.20651,-0.053488,0.023017,0.2271,0.023035,0.074075,0.048536,-0.25752,0.099564,-0.02798,-0.181,0.074038,-0.027974,0.074062,0.15057,0.09954,0.17611,-0.23202,-0.18101,-0.15549,-0.13001,-0.078972,0.17607,0.12507,0.12509,0.099564,-0.20652,-0.078972,-0.1555,-0.10449,0.023041,-0.053495,0.12507,0.17607,0.15058,0.17609,-0.13001,-0.12998,-0.053482,-0.20652,-0.027969,0.023023,0.048567,0.17608,0.048543,0.2781,0.048536,-0.15548,0.023047,-0.13001,-0.1555,0.023035,0.048536,0.2526,0.023035,0.17607,-0.23204,-0.181,0.099559,0.074062,-0.1045,-0.07899,0.30363,-0.07899,-0.002485,0.023047,0.074057,-0.027962,-0.027969,-0.23204,-0.10447,0.02301,0.15058,0.099564,0.22709,0.15058,0.048518,-0.078972,-0.25753,-0.33405,-0.30852,0.048536,0.12507,0.20159,0.22707,0.15059,0.048536,-0.12999,-0.13,-0.1045,-0.18099,-0.079002,0.12507,0.2271,0.048555,-0.002467,-0.027987,-0.002443,-0.002461,-0.23203,-0.18101,0.023029,0.2016,0.15057,-0.18103,0.25262,0.2016,-0.10449,-0.35956,-0.20652,-0.05347,0.074075,0.15056,0.12505,0.074069,0.074044,-0.002454,-0.20649,-0.078996,-0.1555,-0.20652,0.023041,0.15057
0.048525,-0.10448,-0.181,-0.15551,-0.15547,0.074044,-0.02798,0.2526,0.20157,-0.002467,0.023041,-0.02798,-0.30853,-0.05347,-0.05347,0.074075,0.25258,0.099552,0.048555,0.074033,-0.1045,-0.10449,-0.15552,-0.15551,-0.027956,0.20158,0.15056,0.048543,0.12506,0.074026,-0.1555,-0.078953,-0.18103,-0.078977,0.048543,0.074062,0.12507,0.12505,0.12506,-0.02798,-0.002467,0.023035,-0.181,-0.027969,-0.078972,0.12508,-0.078984,0.099552,0.099552,-0.078984,0.074038,-0.181,-0.15551,-0.053482,-0.12997,0.15057,-0.002461,0.3546,0.099552,0.023035,0.023035,-0.078977,-0.18101,-0.1045,-0.027962,0.048549,0.048561,0.15055,-0.027962,0.023035,-0.078996,-0.15549,-0.027987,-0.13,-0.078959,0.3036,0.12507,0.09957,0.074033,-0.002485,-0.181,-0.002461,0.02301,-0.10449,-0.053446,0.048567,-0.10449,0.15058,-0.027987,-0.053482,0.023047,-0.15549,-0.078959,0.15057,0.074062,-0.23204,-0.23205,-0.053525,0.15059,0.45669,0.38016,-0.23204,-0.38506,-0.10449,-0.15548,0.20164,0.38011,0.02301,0.15056,-0.6402,0.25263,0.074069,0.17609,-0.76765,-0.1555,0.76274,0.58422,0.68615,-0.51254,-0.33408,-0.64015,-0.1555,-0.33406,0.35463,0.25262,-0.10448,0.099534,-0.02795,0.17609,0.023023,0.17609,0.048561,0.048536,0.22701,-0.74206,-0.46153,0.43108,0.35461,0.023059,0.15049,0.50762,-0.64001,-0.23203,0.22709,0.76267,0.27803,0.43104,-0.41051,-1.4051,-0.15547,0.30353,0.30356,0.1505,-0.027993,0.099534,0.45662,0.30358,-0.23201,0.023023,-0.13,-0.002423,-0.053439,0.023072,-0.053451,-0.58907,-0.20653,0.099577,0.35464,0.2016,-0.079026,0.68606,0.43108,-0.64004,-0.436,-0.30847,0.48208,-0.25756,0.074062,-0.20649,-0.61452,0.27805,0.35454,-0.002461,-0.23199,-0.2065,0.63514,0.81371,0.7372,0.96662,-0.79306,-0.53807,0.099497,-0.13007,-0.84405,0.38007,-0.538,-0.078972,0.53313,0.12503,0.32909,0.38012,-0.18103,-0.48711,-0.23201,0.15063,0.12509,-0.25752,0.12505,-0.20653,0.09957,0.20158,-0.15549,-0.33405,0.023035,0.023065,0.71171,0.17608,-0.43603,-0.20652,0.22704,-0.079008,-0.078972,-0.028005,-0.028018,-0.12995,0.35464,-0.078972,-0.1555,-0.002472,0.048531,0.12508,0.09954,-0.15549,-0.078972,-0.10449,0.17607,0.15057,0.94126,-0.30854,-0.66568,-0.71666,0.40566,0.27813,0.43115,0.12507,-0.43601,0.099552,0.22707,-0.20652,0.38005,-0.33408,-0.97166,-0.18098,0.023047,0.3036,0.35464,0.60965,0.3291,-0.002448,-0.10448,-0.30852,-0.51256,0.073965,-0.53802,-0.58897,1.7827,0.30357,-0.51249,0.074069,-0.15548,0.81357,-0.89504,-0.13001,-0.053464,0.58412,-0.58898,0.20153,-0.002467,-0.079014,0.12505,0.074075,0.023054,-0.1045,-0.23201,0.17611,0.099577,0.50768,0.22709,-0.58913,-0.30858,-0.30856,0.32913,0.38014,-0.053464,-0.33405,-0.25751,0.023029,0.32911,0.074075,-0.002454,0.20156,-0.07899,-0.12999,-0.10452,0.048549,0.17609,-0.20648,0.27806,0.048549,0.38006,-0.41049,0.35456,-0.97157,-0.35949,0.27801,0.27806,-0.002443,0.68615,-0.23197,0.022961,-0.25752,0.099595,-0.33404,-0.13,-0.027962,0.15063,0.40567,0.12505,-0.28306,-0.20656,-0.027969,0.20161,-0.02795,0.32913,0.15059,-0.43607,-0.58912,0.2271,0.32911,-0.13002,-0.38508,0.048525,0.20156,0.1506,-0.053446,-0.10443,0.15056,0.30359,0.022998,-0.61452,0.048518,0.12504,-0.18099,0.30353,-0.74204,0.3036,-0.56351,0.15059,0.73713,-0.078966,-0.35953,-0.078984,-0.027974,-0.027998,0.023029,0.15056,0.35461,0.30361,0.12509,-0.002454,-0.3851,-0.15549,-0.12999,-0.15548,-0.1555,0.30356,-0.23193,0.30364,-0.30858,-0.35959,-0.027974,0.35462,0.12508,0.12507,0.048555,0.17609,-0.05347,-0.13,0.099552,0.2526,-0.07899,-0.18103,-0.30854,0.17607,-0.15549,-0.18097,0.89011,-0.35948,-0.81855,0.55856,-0.10452,0.30358,0.048525,-0.12993,0.099564,0.15049,0.17607,0.35463,-0.078984,0.099534,-0.078984,-0.25751,-0.35957,-0.053458,0.023078,-0.053482,-0.027974,0.55869,0.30361,0.048543,-0.053495,-0.13001,-0.61463,0.048543,0.074075,-0.2065,0.074013,0.15059,0.27811,-0.3341,0.15059,-0.10447,-0.28301,0.09957,-0.002485,0.35459,0.50764,0.20156,-0.15548,0.023023,-0.53804,-1.1501,1.0175,-1.0736,0.35458,0.94114,-0.84402,0.53312,0.43113,0.22709,-0.30853,-0.46159,0.15051,0.048549,-0.027938,-0.66547,0.048536,0.15057,-0.053495,0.15054,-0.079002,-0.002467,-0.15549,0.12508,0.5842,0.45666,-0.25754,-0.28303,-0.10452,0.12504,-0.15551,-0.10449,0.09954,-0.15551,-0.23198,0.22709,0.2271,-0.027956,0.12504,-0.078996,-0.181,-0.002479,-0.181,-0.23202,0.27809,-0.002467,0.15056,0.2271,0.30358,0.25253,-0.51252,-0.181,-0.079002,-0.38505,1.3236,-1.15,-0.18091,0.60967,0.32721,0.45472,0.38006,-0.25753,-0.92056,0.25257,-0.181,-0.028011,-0.13,-0.12991,0.25257,0.074081,0.35459,-0.18101,-0.20649,0.15052,-0.12998,-0.48699,0.22707,0.12505,0.048536,0.12507,0.45663,0.074026,-0.053488,-0.1045,-0.53803,0.45658,-0.20649,-0.00251,0.2271,-0.89497,0.20158,-0.002491,0.07402,0.074026,-0.10452,0.048525,0.2271,0.3036,0.12504,0.09957,-0.10448,0.25255,0.17607,-0.10443,-1.1501,-0.0535,-0.07899,0.22702,-0.078959,0.25263,0.30355,0.60955,-0.43601,-0.23199,-0.027993,0.15056,0.91562,0.55862,-1.7366,0.38011,0.35456,-0.25752,-0.002479,-0.002491,-0.18103,-0.12999,0.023054,0.20157,-0.002454,0.27811,0.09957,-0.43602,-0.053464,0.17607,-0.078984,-0.13,0.048536,0.099534,-0.23203,-0.027987,0.048567,0.20158,0.09957,0.074081,-0.15548,0.074026,0.22702,-0.56348,0.20156,0.43106,-0.23199,-0.23201,0.22702,0.17606,-0.61445,0.12504,-0.41049,0.12507,0.40557,0.50758,-0.078972,-0.84405,0.25256,-0.078996,-0.181,-0.43601,0.17605,-0.38495,0.4056,0.55862,-0.18095,-0.15553,0.048531,-0.002479,0.022986,-0.078996,-0.002467,-0.13,-0.002485,0.27812,0.12512,-0.002448,-0.002436,-0.12998,-0.078984,-0.13,-0.13002,-0.38513,-0.079014,0.5332,0.66073,-0.15547,-0.33407,-0.4616,-0.078977,0.09957,0.22707,0.12503,0.1506,0.074057,0.22706,-0.30855,-0.25751,-0.20653,-0.002472,0.17608,0.27811,0.32912,0.09957,0.22705,-0.002472,-0.25751,-0.23199,-0.30855,-0.23202,-0.10453,-0.027969,-0.23198,0.30356,0.15057,0.17609,-0.02795,0.25252,0.12505,-0.53803,-0.35949,0.32905,0.40561,0.25254,0.023023,-0.078904,0.2781,0.15057,-0.25753,-0.18103,-0.18103,0.099534,-0.58899,-0.10447,0.099564,0.17607,-0.002497,0.30356,-0.20651,-0.30853,-0.25754,0.15057,0.43117,0.45664,0.2526,0.38014,-0.12996,-0.078984,-0.18106,-0.18106,0.15051,-0.53806,-0.28296,0.074038,0.20159,0.71168,-0.1045,0.43104,-0.8185,0.048506,-0.23201,0.50756,-0.053446,0.099583,0.38012,-0.436,0.074069,0.20156,-0.002485,-0.35954,-0.18101,-0.84405,0.048536,0.3801,0.50762,0.40561,0.023065,-0.18101,0.12501,-0.33404,-0.69107,-0.15553,0.17608,0.35459,0.38014,0.099595,-0.181,-0.15552,0.048573,-0.13002,0.023054,0.074038,0.048543,-0.10449,0.20159,-0.12998,0.074038,0.074026,-0.25753,0.048506,-0.58903,0.58411,-0.027956,0.074062,0.58409,0.6351,-1.1755,-0.38502,0.30357,-0.23204,-0.053506,1.0431,-0.79302,0.048549,-0.053415,0.30361,0.12504,-0.10448,-0.002479,-0.66559,-0.1045,-0.02798,0.27811,0.2016,0.32909,0.074044,0.023035,-0.10451,-0.078984,-0.30854,-0.23204,0.099564,0.07402,-0.23203,0.40563,0.27813,-0.078947,-0.18101,0.048555,0.048525,0.22709,-0.027993,-0.385,-0.385,0.73711,-0.18096,-0.13001,-0.10449,-0.00251,-0.053573,-0.58898,-0.027944,0.4821,0.45661,-0.002443,0.35457,0.48205,-0.28302,-0.20648,-0.41053,-0.053482,0.023035,0.2526,0.074051,-0.027956,0.09957,0.048531,0.023059,-0.13,-0.33404,-0.25751,0.12504,0.048536,-0.18101,0.023035,0.15057,-0.002461,0.074087,0.35466,0.074038,-0.61462,-0.33409,0.048536,0.78815,0.71168,-0.35942,-0.84403,0.22705,0.0485,-0.13003,-0.23202,-0.38502,-0.30847,0.71157,0.45658,-0.027956,-0.079008,-0.23201,-0.10444,-0.33399,-0.20653,-0.053446,-0.027969,0.048555,0.12506,0.22707,0.17605,-0.15549,-0.078972,-0.23203,-0.25756,-0.23203,0.25263,0.48218,0.6097,0.09957,-0.41057,-0.30855,-0.20652,-0.12999,0.20159,0.17607,-0.028005,-0.1045,0.58417,0.12507,-0.15549,-0.30855,-0.1045,-0.33401,-0.283,0.17604,0.2526,0.2526,0.38008,0.32908,-0.027962,-0.41049,-0.84404,0.78807,-0.69107,0.20155,0.35459,0.48207,0.38006,-0.027969,-0.18098,-0.58903,0.25256,-0.18098,-0.181,-0.181,0.074038,0.099546,0.15059,0.15059,-0.053488,0.12509,0.074087,-0.76769,-0.74217,0.048567,0.73723,0.50767,0.30363,0.12505,0.12505,0.074044,-0.28302,-0.46159,-0.18103,-0.181,0.048531,-0.3595,0.30358,0.12506,-0.18102,-0.13,0.43109,-0.15549,-0.48703,0.32908,0.3291,0.15057,0.12511,0.023065,-0.02798,0.27803,0.048536,-0.10449,-0.10451,0.15055,0.12506,-0.053488,-0.18104,-0.23202,0.25263,-0.053458,-0.15549,-0.41059,-0.20653,0.32913,0.43113,-0.05347,0.43114,0.074044,-0.38509,-0.33408,0.1251,0.023023,-0.002454,0.099559,0.17607,0.099577,0.35459,-0.23197,-0.10448,0.25253,-0.23199,0.022986,-0.64004,0.30355,0.09954,0.22707,0.45658,0.30361,-0.43597,0.023023,-0.079002,-0.15553,0.074069,0.15056,0.20155,0.12505,0.20158,-0.05347,-0.18097,0.023041,-0.002461,-0.43607,-0.53813,0.074069,0.40567,0.27811,0.40563,0.1761,-0.053458,-0.13002,-0.12998,-0.10453,-0.10455,-0.053495,0.048561,0.25259,0.35464,-0.4615,0.073989,-0.33398,-0.053482,0.43104,-0.30851,-0.12998,-0.053427,0.15054,0.2526,0.12504,0.20158,-0.027969,-0.13,-0.33402,-0.20655,0.048555,-0.18098,-0.002387,0.4311,-0.002485,0.074062,0.074038,-0.12999,-0.53815,-0.10448,0.27811,0.15058,0.074062,0.12504,0.12507,-0.078977,0.048561,0.12508,-0.18103,-0.12999,-0.053495,-0.07899,-0.002454,0.20156,-0.078935,-0.078953,0.074038,-0.13005,-0.43612,-0.41056,0.2781,0.25262,0.4311,-0.23193,0.099583,0.89008,-0.053476,-0.027974,-0.51253,-0.38505,-0.18104,-0.02792,0.43112,0.40558,0.32906,-0.25748,-0.13,0.048506,-0.23195,-0.15546,-0.15549,-0.23205,-0.1045,-0.002467,-0.053464,-0.078959,0.2526,0.25261,-0.10447,-0.23203,-0.079008,0.25259,0.22708,0.3036,0.023047,-0.10447,-0.181,-0.1045,-0.18102,-0.05347,-0.20651,0.22707,0.074038,-0.18093,0.20159,0.66057,0.30353,-0.20649,-0.43602,-0.64001,0.12504,1.0176,-0.56345,0.27809,0.12507,0.023029,0.074033,0.023017,-0.078984,-0.079014,-0.027974,-0.002467,0.048536,0.20158,0.25263,-0.18097,-0.027987,-0.51261,-0.51255,0.12506,0.099595,0.2271,0.20153,0.27806,0.25261,-0.053488,0.048536,-0.12998,-0.10445,-0.078984,-0.30856,-0.1555,0.074051,0.32914,0.12506,-0.18098,0.023047,0.022998,0.074013,-0.69105,-0.15548,0.55858,-0.30846,0.25258,-0.053495,0.20154,0.20156,-0.027956,-0.38502,-0.002448,0.048531,0.20153,0.15054,0.099577,0.074062,-0.053451,-0.002485,-0.25753,-0.33404,-0.20652,-0.15551,0.35461,0.68622,0.25263,-0.51263,-0.43606,0.17607,0.27809,-0.002418,-0.027962,-0.027969,0.048549,0.099546,0.12504,0.17607,0.023035,-0.18101,-0.30855,-0.028029,-0.61455,-0.3595,0.074081,0.22708,0.68613,-0.28295,0.50757,0.074026,-0.12997,-0.28301,-0.334,0.17606,0.27809,0.048531,0.023047,0.12507,-0.027969,-0.12997,-0.28302,-0.35956,-0.28305,0.22709,0.53319,0.17609,0.12504,-0.027987,-0.33404,-0.10453,-0.18103,-0.053451,-0.18101,-0.15551,0.2526,0.45664,0.43115,0.20159,-0.078972,0.15054,-0.25749,-0.23202,-0.35956,0.074044,0.12504,0.20155,-0.7675,0.30356,0.12504,-0.15548,-0.027956,-0.23199,0.02301,0.12505,0.78813,-0.00243,-0.436,-0.25743,0.22704,-0.41053,-0.078972,0.0485,-0.002485,-0.078984,0.048536,0.12503,0.2271,0.023065,-0.027969,-0.15549,0.023084,-0.15548,-0.23203,-0.002461,-0.053488,-0.079002,0.099521,0.38013,0.25262,0.12506,-0.10448,-0.002448,-0.13002,-0.0535,-0.05347,0.023035,-0.002461,-0.10448,0.35458,0.099546,-0.28298,0.12499,-0.64005,-0.053464,0.35459,-0.12994,0.32905,-0.35949,-0.12998,0.53307,-0.53799,0.074013,0.023029,-0.053519,-0.13001,0.074075,0.40566,0.099577,-0.15547,-0.078984,-0.25753,-0.69116,-0.1045,0.22714,0.40563,0.12507,0.07402,-0.027925,-0.12995,0.12503,0.099528,-0.15552,-0.25754,0.17608,0.27809,0.048525,-0.027974,0.074033,-0.25748,-0.002448,0.12505,-0.15549,0.50757,-0.30852,0.12507,0.074051,0.32908,0.25257,0.12505,-1.6091,-0.053519,0.074013,0.27806,0.40555,0.43116,0.15057,-0.10449,-0.18106,-0.10449,-0.10444,-0.028018,-0.23202,0.25264,0.25264,0.20159,0.023017,-0.43609,0.12504,0.17609,0.27812,-0.02798,-0.053464,0.074057,0.048531,-0.002497,-0.12999,-0.02798,0.099528,-0.05347,-0.10444,-0.2065,-0.20653,-0.28303,0.40555,-0.078959,-0.25745,0.023072,0.17607,0.30356,-0.12995,0.35461,-0.33404,-0.41053,0.023054,0.27806,0.4056,0.35463,-0.079002,-0.28306,-0.28305,0.12507,-0.10444,-0.33402,0.15056,-0.053513,0.09957,0.32913,0.35462,-0.12999,-0.027938,-0.20652,-0.23204,-0.02795,0.048555,-0.027987,-0.20653,0.074038,0.12506,-0.002443,0.32908,-0.10449,-0.35953,0.023005,0.023059,0.55859,-0.002448,-0.23197,0.43109,0.6096,-0.41048,-0.15548,-0.30854,-0.053476,0.32905,1.2216,-1.0225,-0.28295,-0.078941,0.20155,0.09954,0.27808,-0.30855,-0.25753,0.023035,0.12504,0.15058,0.25263,0.099583,-0.10449,-0.35958,0.048555,0.048585,-0.41058,-0.43609,0.2271,0.45669,0.30363,0.17608,-0.30855,-0.078984,-0.33404,0.023029,-0.0535,-0.027987,0.074051,0.099577,0.15057,0.20153,0.099521,0.22706,-0.97153,-0.15548,-0.20653,-0.078953,0.76259,0.4056,-0.027944,-1.1245,0.81361,0.023059,0.099552,0.099473,-0.28303,0.12505,-0.181,-0.10452,-0.15553,0.04861,-0.10443,-0.02795,-0.078996,-0.002472,0.023017,0.2271,0.3036,0.2016,-0.078984,-0.053488,-0.18103,-0.13001,0.048561,-0.002472,-0.027969,-0.079008,0.022998,0.15058,0.17609,0.074013,-0.10447,-0.15545,-0.002467,0.048543,-0.2065,0.53309,-0.25749,0.074069,0.2271,-0.23195,0.38003,-0.15551,0.023023,-0.053476,-0.027998,-0.12997,0.17605,-0.002448,-0.002472,0.12507,0.1251,-0.20651,-0.58908,-0.25756,-0.23204,0.58409,0.099626,0.25264,0.099559,0.25261,0.15058,-0.027974,-0.15551,-0.13002,-0.20652,0.073995,-0.002467,-0.002436,-0.078977,0.35459,-0.12996,-0.35952,0.12504,0.15056,0.023054,0.20152,0.73709,-0.76749,-0.28298,-0.027969,-0.18096,0.09957,0.32902,0.15051,-0.35951,-0.10448,0.15057,0.15057,0.63514,0.27808,-0.30844,-0.002472,0.048512,-0.30855,-0.23205,0.099559,0.43117,-0.027987,-0.4361,-0.002443,0.30361,-0.00243,-0.00243,-0.18102,-0.20655,-0.027956,0.45663,0.074069,0.15059,0.25259,-0.18104,-0.35955,-0.20646,-0.027969,-0.053513,-0.1045,0.023059,0.023059,0.15059,0.12507,0.023035,0.099564,0.074013,-0.10451,-0.2065,-0.078996,0.32906,0.099583,-0.28297,-0.28295,0.048536,0.38003,-0.15548,-0.078966,-0.079002,0.048561,0.12506,0.074051,-0.20652,-0.3086,-0.13,0.099588,-0.002472,0.35465,-0.15549,-0.078972,-0.15553,0.099577,0.22712,-0.002479,-0.053476,-0.027987,0.02301,-0.18101,-0.053464,-0.02798,-0.078977,0.22708,0.43106,-0.25746,-0.12993,-0.23198,0.58404,-0.53801,-0.10452,0.30354,0.50757,0.55863,-1.15,0.12504,0.27808,0.048561,0.074051,0.048536,-0.028011,0.17603,-0.002497,0.074051,0.074093,0.074106,-0.23203,-0.078996,-0.28302,-0.30854,-0.002467,-0.053506,-0.027993,0.30364,0.12509,0.32913,0.30362,0.074069,-0.23202,-0.00251,-0.41058,-0.002454,0.30359,0.07402,-0.18094,-0.00243,0.09954,0.048494,-0.20649,-0.33397,0.12506,0.22704,0.30356,0.83912,-0.15545,-0.89504,-0.2065,0.074033,-0.053482,-0.10448,0.15058,0.15054,0.022992,0.074038,0.023047,0.074044,-0.002454,-0.053458,0.023059,-0.23203,-0.053458,-0.12999,-0.30859,0.074051,0.22712,0.27812,0.30363,-0.23201,-0.30854,0.023023,-0.00251,0.048561,0.099577,0.12504,0.20157,-0.002448,-0.10449,-0.10449,-0.35952,0.27803,-0.69105,0.30357,-0.28295,0.32905,0.15057,-0.002405,-0.3595,0.07402,0.074044,-0.10449,0.099491,-0.2065,0.55859,-0.027962,-0.12991,-0.10446,0.17602,-0.38502,-0.35953,0.073995,-0.027974,-0.002405,0.15057,0.12504,-0.002454,0.20159,-0.027987,-0.15553,-0.053482,0.023059,0.12508,-0.13002,0.2016,0.099564,0.074044,0.099546,-0.181,-0.078996,-0.078984,-0.28303,-0.2065,-0.28299,0.40561,0.48206,0.60962,-0.33398,-0.48702,0.32905,0.48207,-0.053476,-0.69104,0.25257,0.50759,0.43107,0.12506,0.53309,0.27809,-0.538,-0.56358,-0.078996,0.048525,0.12507,0.2526,-0.20652,-0.078972,0.27811,-0.13001,-0.18101,-0.10449,0.15059,-0.25753,0.02301,0.38009,0.32912,0.25264,0.38011,-0.23199,-0.46156,-0.20649,-0.028011,0.048536,-0.079002,-0.053525,0.074038,0.27809,0.15057,-0.43602,-0.30851,-0.02795,0.023017,0.048494,0.15055,0.099564,-0.18094,0.15057,0.15057,0.2271,-0.23199,-0.23203,-0.25753,-0.13001,-0.002467,0.45661,-0.15546,0.15057,0.048536,0.4056,-0.61452,-0.10455,-0.4871,0.023059,0.12505,0.53309,0.15062,0.20159,0.30364,0.15058,0.099595,-0.38506,-0.43608,-0.1555,-0.20653,-0.002491,0.023035,0.048531,0.22711,0.12505,0.38008,-0.48699,-0.18099,-0.181,0.7881,-0.33396,-0.18098,-0.002472,0.15056,0.048555,0.074069,-0.002491,-0.30851,-0.23198,0.099515,0.023047,0.27808,-0.027969,-0.002461,-0.15549,-0.078959,-0.13002,-0.28303,0.38016,0.12507,-0.20653,-0.20654,-0.10452,0.1251,0.20163,0.15057,0.099564,-0.1045,-0.38509,0.074062,0.20157,0.099534,-0.002467,0.099583,-0.25749,-0.33403,0.22702,-0.053464,-0.28302,-0.69101,0.15056,0.35458,0.22705,0.048555,0.074075,0.38006,-0.58901,-0.078984,-0.69103,-0.002491,0.17604,0.63511,-0.027974,-0.12996,0.15057,0.048512,-0.30851,-0.10445,-0.10449,-0.25754,0.20154,0.2526,0.22712,-0.13001,-0.18103,0.023047,0.2526,0.09957,-0.10447,-0.18101,0.15057,-0.078959,0.12504,-0.002472,-0.05347,0.023017,-0.07899,-0.027969,-0.33404,-0.12999,0.12507,0.09957,0.32907,-0.027938,-0.33402,0.099546,-0.28298,0.25251,0.074051,0.023054,0.074062,0.15058,0.12506,0.38009,-0.10444,-0.20649,-0.15549,-0.078977,-0.10452,-0.23201,0.25259,0.17606,-0.027974,0.17608,0.023023,0.023047,0.074044,-0.027974,-0.10449,0.2271,0.12505,0.09957,0.15053,-0.20649,-0.48702,0.38007,-0.12995,0.074013,-0.23202,0.22705,-0.12993,-0.12998,0.15056,0.22705,-0.002461,-0.46149,0.15056,-0.18103,-0.15551,-0.07899,0.074075,0.55859,-0.18094,-0.078923,0.023035,-0.12998,-0.10448,0.25257,0.68605,-0.53801,-0.12998,0.099583,0.09957,0.20153,-0.053476,-0.18101,-0.25753,-0.002436,-0.20652,0.17608,-0.027993,0.12508,0.12508,-0.002491,0.023054,0.35465,-0.25754,-0.33404,-0.05347,0.17607,0.20159,0.15055,-0.002479,-0.12999,-0.2065,-0.13,0.074026,-0.18099,-0.07899,0.074051,0.1506,0.53308,0.48208,-0.436,0.15057,0.074038,-0.25751,0.38006,-0.30851,-0.20648,-0.48695,0.53312,0.27802,-0.12995,0.45659,-0.30851,-0.0535,-0.12999,-0.027969,-0.027962,0.43108,0.023035,-0.33404,-0.053446,-0.12998,0.15059,0.048536,-0.38506,-0.02795,0.023041,0.15057,0.20157,0.22705,0.048555,-0.15551,-0.20652,-0.02795,-0.18101,-0.20649,0.048536,0.22707,0.17608,0.023035,0.20158,-0.20652,-0.002443,0.099515,-0.46151,-0.002497,0.15056,0.53309,-0.15546,0.048561,0.38007,0.048549,-0.15549,-0.8185,0.25252,0.023017,0.45658,-0.86955,-0.12995,0.50759,0.25257,-0.13,-0.15551,-0.02795,-0.078977,-0.25753,-0.23199,0.30357,0.048561,0.023059,0.048536,0.023054,-0.027956,0.023041,-0.053482,-0.30852,-0.1045,0.22705,0.17604,-0.078953,0.27812,0.12505,-0.07899,-0.12998,-0.1045,0.20152,0.15055,-0.84401,0.22709,0.099546,0.023047,0.12504,-0.02798,0.09957,-0.18101,-0.25753,-0.13001,0.023035,0.12509,0.12507,0.22712,-0.002479,-0.10449,0.023047,0.074013,-0.51256,-0.12997,0.048536,0.048543,0.20156,0.2271,-0.027969,0.048536,0.68611,-0.232,-0.74203,0.048555,0.27809,0.048518,-0.053488,-0.002448,0.048506,0.12502,0.048555,-0.20649,-0.15553,-0.13001,0.20156,0.074087,-0.20646,0.3291,0.63509,-0.30851,0.023035,0.099546,-0.07899,-0.027969,0.20156,0.023072,-0.053476,0.023029,0.074033,0.023041,0.099588,-0.10449,-0.48709,-0.4361,0.17608,0.32912,0.35463,0.25261,0.15056,-0.13001,-0.23202,-0.027969,-0.23205,-0.15551,0.20159,0.099583,0.15057,0.17606,-0.13,-0.078977,0.023059,-0.385,-0.13,-0.15548,0.15056,0.40557,0.099546,0.1251,0.09954,-0.053482,0.099559,0.38002,-0.30848,-0.64003,-0.20646,0.30358,0.22704,0.15056,0.048525,-0.02798,0.38013,-0.18099,-0.25752,-0.30855,-0.15551,0.17607,0.4311,0.1761,-0.078959,-0.053464,-0.20648,-0.02798,-0.30854,-0.053464,0.099559,0.22707,0.30359,-0.002467,-0.12999,-0.10449,0.023041,-0.10451,-0.23203,-0.33399,0.17608,0.12507,0.099552,0.27808,-0.2575,-0.002467,0.32907,-0.71651,0.38003,-0.2575,-0.2065,0.30358,0.27807,0.17605,-0.079002,-0.078977,-0.10447,-0.15549,-0.078977,0.023035,0.048561,-0.46159,-0.15553,0.20161,0.38017,0.38017,-0.027969,-0.15551,-0.23202,0.15055,0.12504,-0.078984,-0.002467,0.20158,0.023041,-0.12999,-0.23203,-0.25754,0.074008,0.074038,-0.28296,0.099595,0.45662,0.4056,0.35461,-0.23199,-0.28302,-0.283,0.074008,-0.002485,-0.23198,-0.05347,0.12507,0.4056,-0.078947,-0.053476,-0.027962,-0.12997,-0.10451,0.048536,0.12505,-0.079002,-0.07899,0.22711,0.074075,-0.1555,0.074075,-0.027987,-0.25752,0.099577,0.25258,0.074038,-0.30849,0.099515,0.17607,0.074051,-0.053488,-0.027962,-0.18097,-0.20654,0.09954,0.22708,0.15056,-0.002436,0.074062,-0.20652,-0.23199,-0.20651,-0.25753,0.25256,0.023054,0.15056,0.22708,-0.002418,-0.20647,-0.053464,-0.0535,-0.23202,0.074038,0.048512,0.58409,-0.053439,0.27808,-0.53797,0.20156,-0.66553,-0.002436,0.048567,-0.002516,-0.028005,-0.28301,0.17607,0.3291,0.38014,0.35462,-0.15553,-0.12998,-0.027993,-0.33404,-0.12999,0.12505,0.12505,-0.30846,-0.053433,0.40559,0.048536,-0.30852,-0.053488,-0.079008,-0.12998,0.048536,0.5586,0.30356,-0.25746,-0.15548,-0.18098,-0.15548,-0.181,-0.18099,-0.05347,0.09957,0.32912,0.17606,-0.15554,-0.10447,0.099552,-0.10447,-0.027987,-0.027956,0.12505,-0.002485,0.12507,0.15056,0.074062,-0.053458,-0.053476,-0.02795,-0.027969,-0.07899,0.048555,-0.053495,0.12506,-0.027974,0.023054,0.20153,0.32902,-0.56353,-0.18099,-0.07899,-0.078972,0.15057,0.38011,0.35459,0.50763,-0.66547,-0.33399,-0.078996,0.02301,0.17604,-0.2575,0.27805,0.023059,0.20156,0.15056,-0.15549,0.60957,-0.33397,-0.30854,-0.48709,-0.18105,0.20159,0.35465,0.17608,0.074038,0.12507,0.1506,0.09957,-0.13,-0.33404,-0.027962,-0.027987,0.27811,-0.10447,0.023017,0.023017,-0.053482,-0.2065,-0.18101,-0.20653,-0.23199,0.099564,0.78815,-0.10442,0.20158,-0.078977,-0.002448,0.099534,-0.1045,-0.33401,0.074013,-0.078947,-0.002436,0.30356,-0.053439,0.20158,-0.053488,-0.10449,0.048543,-0.053482,-0.053476,-0.002454,-0.027987,0.12504,0.099564,-0.027962,-0.002461,-0.1555,-0.20652,-0.33404,-0.002454,0.12507,0.38016,0.27811,0.17607,-0.18099,-0.181,0.023035,-0.15549,-0.41058,-0.18102,0.17609,0.15054,0.074057,0.048573,0.048536,-0.002454,-0.20653,-0.15553,-0.027974,-0.30846,0.22705,0.2526,0.15054,-0.10442,0.074038,0.023023,0.27805,-0.43602,-0.027987,0.15056,0.15056,-0.23201,0.023084,0.2526,-0.13001,-0.35956,-0.027974,-0.15551,-0.33404,0.20159,0.2781,0.2271,0.2781,0.12505,-0.13,-0.23201,-0.078984,-0.13002,-0.20651,-0.12998,0.074026,0.048518,0.099564,0.20161,0.074057,-0.10447,-0.078959,0.40557,-0.41052,-0.33403,0.048543,0.20159,0.25257,0.35458,0.20156,-0.027969,0.048536,0.023047,-0.38502,-0.28303,-0.027956,0.27808,0.12503,0.12504,-0.002448,0.099559,-0.078977,-0.20649,-0.181,0.023047,0.048536,0.12508,0.099564,0.099546,0.074075,-0.078977,0.15054,-0.28302,-0.35952,0.176,-0.18101,0.023035,-0.002448,0.12507,0.048567,0.048549,-0.078996,-0.10447,-0.027969,0.048531,-0.12996,0.22707,0.023029,0.17606,0.12505,0.17604,-0.18097,-0.181,-0.28303,-0.28298,0.20158,0.048525,0.074069,0.27809,0.074033,-0.18097,0.023041,0.023005,-0.12998,-0.38506,-0.20655,0.048561,0.32911,0.074038,0.27813,0.023084,0.20156,-0.1045,0.099564,0.12506,0.17609,-0.078977,-0.002485,-0.027987,-0.20653,-0.20651,-0.07899,-0.18099,-0.13001,0.20156,0.32911,0.023084,0.09957,0.048592,0.12504,-0.18102,0.15056,0.048525,-0.43604,-0.12997,0.074038,-0.12999,0.20159,0.20157,0.12505,-0.079002,0.023005,-0.12999,-0.33404,-0.18098,0.20157,0.048525,-0.12997,0.20155,-0.15551,-0.002448,0.074057,0.074062,-0.1555,-0.053506,0.048536,0.43115,0.3291,0.25259,0.074062,-0.23199,-0.078972,-0.10452,-0.25753,-0.10452,0.074033,0.12508,-0.002479,0.12507,0.15056,-0.053482,0.048555,-0.027969,-0.078984,-0.078996,-0.078947,-0.23198,0.4311,0.48206,-0.66551,-0.078959,0.074038,-0.002503,-0.33404,-0.053482,0.074044,0.15055,0.2016,0.074075,0.099583,-0.13,-0.1555,-0.25753,-0.053464,-0.002454,0.20158,0.27807,-0.10449,-0.078966,-0.078972,0.1761,0.074057,-0.15551,-0.41058,0.12508,0.17604,0.25259,-0.02798,0.2016,0.074051,-0.2065,0.048561,-0.002454,-0.15551,0.048494,-0.23197,-0.027944,0.15054,0.15054,0.099546,0.38009,-0.05347,-0.10448,-0.35954,-0.25749,-0.00243,0.43112,0.32909,-0.027956,-0.20649,-0.0535,-0.28301,-0.385,-0.002503,-0.028005,0.12505,0.25261,0.15058,0.35462,0.023047,-0.15549,-0.35956,-0.23204,-0.10446,0.074093,0.17607,0.22707,0.2781,0.12507,-0.078977,-0.12999,-0.053495,0.023017,-0.25753,-0.25753,0.048531,0.17609,0.22708,0.17609,-0.078977,-0.078977,-0.078984,-0.25751,-0.46152,0.53307,-0.078959,0.3801,0.20158,0.30361,0.22706,-0.20652,-0.181,-0.28298,-0.12998,0.048525,0.074038,0.20158,0.22709,0.074062,0.099515,-0.35953,-0.05347,-0.027969,-0.10448,-0.053464,-0.053488,0.15057,0.63511,-0.078947,-0.002443,-0.078984,-0.18101,-0.053488,-0.25753,0.074044,0.40558,-0.20646,-0.538,0.4056,0.125,0.048518,-0.027944,0.22704,-0.20652,-0.232,-0.053488,0.074087,-0.002436,0.3291,-0.002448,-0.05347,-0.053476,-0.15553,-0.15557,-0.30856,0.15062,0.20159,0.27812,0.048531,0.023029,-0.20645,0.099534,0.048555,-0.053464,-0.1045,0.048536,0.12505,0.30357,-0.20647,0.048531,-0.053451,0.023035,0.048543,-0.28302,-0.30856,0.048525,0.22706,-0.053446,0.78812,-0.33394,-0.4615,-0.053495,0.27808,0.048536,0.15054,0.40558,-0.69097,-0.3595,0.22705,0.099528,0.4566,-0.0535,0.074013,-0.33407,-0.027956,0.12506,0.2526,-0.10446,0.15057,0.09957,-0.28303,-0.181,-0.15551,-0.48708,-0.28303,0.12509,0.2781,0.17609,0.43115,0.30361,0.099577,-0.07899,-0.23201,-0.18103,-0.30858,-0.13002,0.15059,0.38012,0.15054,-0.2575,-0.23198,0.023047,-0.0535,-0.25754,0.074008,0.15056,0.2271,0.15059,0.074069,0.048555,0.12502,-0.078947,-0.12998,-0.20652,-0.12998,0.32906,-0.053458,0.048567,0.17604,-0.002467,-0.25751,-0.053458,-0.20647,-0.20652,0.12504,0.38011,0.074013,-0.61465,-0.30855,0.12508,0.32916,0.40565,-0.10448,-0.12999,0.09957,0.20159,0.3036,-0.002467,0.099552,-0.027969,-0.18101,-0.28302,-0.078972,-0.10452,-0.10454,-0.18099,0.17607,0.27808,0.2526,-0.1299,-0.15548,-0.25752,0.048549,0.023005,-0.027962,0.12505,0.22707,-0.12994,0.15057,-0.05347,-0.002472,-0.002485,0.023054,-0.25753,-0.002479,0.15057,0.20156,-0.053476,0.099564,0.099564,-0.078966,0.074051,-0.05347,-0.28305,-0.13001,0.12508,0.22706,-0.20653,0.048567,0.15059,0.17606,-0.15548,0.63507,-0.53803,-0.66553,0.3291,0.25256,-0.18098,-0.002472,0.22705,0.32902,-0.334,-0.41051,-1.2776,-0.385,0.48209,0.53311,-0.027969,0.099546,0.22703,0.048531,0.22708,0.023047,-0.12998,-0.078966,-0.10446,0.15059,-0.027974,0.12505,0.023059,-0.18099,-0.25748,-0.15551,-0.053513,0.2271,0.048531,0.074038,0.12508,0.20159,0.22711,-0.027962,-0.078984,-0.23201,-0.35956,-0.053495,-0.053476,0.12506,0.15059,0.17609,0.023035,-0.027969,0.17603,-0.28302,-0.38503,-0.078972,0.12505,0.45662,0.3291,0.048561,0.099559,-0.30851,-0.15546,-0.23202,-0.027998,0.048536,0.099552,0.2781,0.30355,-0.027956,-0.18101,-0.079002,0.074075,-0.002467,-0.18101,-0.35955,-0.1045,0.15057,0.2016,0.30361,0.20159,0.2016,0.12509,-0.20651,-0.61464,-0.25754,0.22708,0.30361,0.12508
