0.099515,0.074002,0.07402,0.023029,-0.053476,-0.18097,-0.25748,-0.20649,-0.027998,-0.053488,-0.002497,0.074013,0.09954,0.17606,0.20156,0.023047,-0.027944,-0.2065,-0.053476,0.074044,0.023035,-0.41051,0.35455,0.30355,-0.027974,-0.20648,-0.25746,0.074062,0.12505,-0.053464,-0.10448,-0.078984,0.023029,0.074044,0.023023,-0.078972,-0.002467,-0.053482,-0.002497,-0.0535,-0.0535,-0.20651,0.048512,0.25254,0.023047,-0.053446,-0.23196,-0.28297,-0.20649,0.048543,0.074044,0.074038,0.048543,0.099546,0.074038,0.22707,0.12505,-0.027969,-0.13,-0.078996,-0.002491,-0.002491,0.023017,0.048536,0.048531,-0.027969,0.048555,0.048549,0.074033,0.048531,0.074033,0.048525,-0.053482,0.074044,0.023047,0.099559,0.048555,0.099546,-0.053476,0.22706,0.048525,-0.15549,-0.15548,-0.053458,0.074069,0.09957,0.17609,0.12507,-0.027962,-0.027956,-0.027969,-0.002467,-0.027969,-0.027962,0.023047,0.074057,0.20158,0.09957,0.023047,-0.12998,-0.28298,0.20155,0.32905,-0.078966,-0.12996,0.22706,0.15057,-0.002479,-0.027993,-0.002491,-0.002479,-0.15549,-0.078977,0.048549,0.023059,0.048573,0.023072,0.023059,0.023041,0.074051,-0.002467,-0.10449,-0.10448,-0.078972,-0.05347,0.099559,0.099559,0.17606,0.023023,0.27803,0.15053,-0.053482,-0.10448,0.023047,0.023041,0.099559,-0.053458,0.048561,0.074051,-0.002454,0.048536,-0.002479,-0.002472,-0.12999,-0.053476,-0.10447,-0.10447,-0.053488,-0.027974,-0.02798,-0.02798,-0.002472,0.023035,-0.027969,-0.027969,0.023054,0.048561,0.023047,0.023035,0.023023,0.12504,0.074038,0.099552,0.099564,-0.053458,-0.078953,-0.30846,-0.25749,0.55854,-0.002491,-0.181,-0.02798,0.074033,0.048555,-0.002443,0.27808,0.023054,-0.002454,0.099534,0.048531,-0.027993,-0.002491,-0.027969,-0.078959,-0.12997,0.023072,-0.053439,0.023059,0.09954,0.12505,0.099546,0.074038,0.074051,0.048561,-0.027944,0.04858,-0.078953,-0.002454,-0.002472,-0.078984,-0.078984,-0.078984,-0.027974,0.074033,0.099534,-0.002461,-0.053451,-0.027969,0.12503,-0.053495,-0.1045,-0.13001,-0.10448,-0.12998,-0.10447,-0.002448,-0.35947,0.38005,-0.078984,0.12504,0.38006,0.023023,-0.053495,-0.078984,-0.002461,-0.002448,-0.027944,-0.027938,-0.10447,-0.027956,-0.027962,0.074026,0.17604,0.099528,0.074033,0.048536,-0.002461,-0.002479,0.09954,-0.15551,-0.053482,-0.053482,0.099559,0.074057,0.099564,-0.002436,-0.078941,-0.18097,-0.18098,-0.20651,-0.1045,0.15054,0.20155,0.15054,0.074038,-0.027962,-0.002448,-0.027956,0.023047,-0.078972,-0.002479,0.074026,-0.027993,-0.078984,0.074051,0.023047,0.048555,0.048543,0.048536,0.12506,0.099546,0.048543,0.023047,-0.053439,-0.10447,-0.12996,-0.15546,-0.10447,-0.002491,-0.41052,0.25252,0.35454,-0.027993,-0.10448,-0.20649,-0.10446,-0.10445,-0.10448,-0.027993,-0.002491,-0.1045,0.099521,0.074038,-0.28298,0.048543,0.099559,-0.10444,-0.23197,-0.027962,-0.23201,-0.18102,-0.0535,0.074033,0.17605,0.25257,0.074057,0.074075,0.023059,-0.10447,0.023041,0.17605,0.12504,0.099534,-0.078966,-0.12998,-0.23196,-0.20645,-0.10445,0.074051,0.099534,0.099528,0.048512,-0.002497,0.17606,0.12504,0.023054,-0.053446,-0.078941,-0.10447,-0.078977,-0.1045,0.07402,-0.002472,0.074062,-0.078959,-0.15548,-0.053458,-0.027969,0.12504,-0.002467,0.048543,0.023029,-0.079002,0.048531,0.09954,-0.00243,-0.078953,-0.10447,-0.053476,-0.002497,-0.0535,-0.10449,-0.181,0.32913,0.35462,-0.027974,0.023065,-0.078947,0.30363,-0.10449,0.17606,-0.28309,-0.7677,-0.56362,0.022992,0.48218,0.2527,-0.283,-0.33405,-0.41058,-0.053519,0.66071,1.0943,0.73727,-0.00251,-0.9207,-0.99712,-0.053506,0.71165,-0.13002,-0.86977,-1.0482,0.45672,1.5792,1.426,-0.35955,-0.71679,-0.56386,-0.002485,0.32915,-0.71665,-1.2523,0.83927,1.273,0.91581,-1.3799,-1.8134,-0.38505,0.71173,1.528,1.3238,-0.028042,-0.8697,-0.61472,-0.18106,-0.43612,-0.63992,0.40577,1.2985,0.78816,-0.41063,-0.48713,-0.078959,0.40544,0.60945,-0.76761,-0.84403,-0.74204,-0.25747,0.25264,1.5534,1.2219,0.45669,-0.61465,-0.86974,-0.69117,-0.8442,-0.13004,0.58417,0.55867,0.35465,-0.10444,-0.51269,-0.23206,0.60972,2.4208,1.1199,-0.99718,-1.9664,-1.2523,0.048378,-0.33409,-0.33402,-0.28306,0.074051,0.17609,0.074026,0.94131,1.0688,0.81374,0.048567,-0.20653,-0.9462,-1.0483,-0.46161,-0.6146,0.074038,2.8798,2.3442,-0.86975,-1.1504,-1.2014,-0.76774,-0.002448,-0.28302,0.074033,-0.12993,0.48226,0.32915,0.22707,-0.15553,0.38014,0.45663,0.048585,0.099588,0.048536,-0.078941,-0.46151,-0.6655,0.40558,0.76263,-0.20656,-0.38503,0.048555,-0.28305,-0.48706,-0.35951,-0.002418,0.22711,-0.25753,-0.48713,0.76266,0.91576,-0.18098,-0.002399,0.43118,-0.35956,-1.1248,-0.56363,0.45669,0.27805,-0.3086,-0.33407,-0.25748,0.17609,0.30363,0.38013,0.38017,-0.002443,0.023041,-0.20651,-0.027969,0.15056,-0.25761,0.12498,0.2016,0.15059,-0.69106,-0.30856,-0.13002,0.17611,0.17609,0.43112,-0.1555,-0.58908,0.22713,0.40559,-0.002491,0.22709,-0.078972,0.20159,-0.002516,-0.10449,0.3802,-0.30851,-0.53807,-0.58907,-0.23206,0.17599,0.17611,0.68622,0.38008,0.20152,-0.5126,-0.23202,0.83928,0.30367,-0.15554,-0.46156,-0.35956,-0.13001,-0.15548,0.48216,0.60957,0.048518,-0.538,-0.10439,0.30362,0.1505,-0.30854,-0.5891,-0.053495,0.32903,-0.05358,-0.53809,0.074142,1.0179,0.5332,-0.053513,-0.43611,-0.66561,-0.35961,0.38007,0.25259,0.4056,-0.002399,-0.12993,-0.002461,-0.053464,0.022925,-0.079008,-0.20653,-0.078977,-0.33407,-0.2065,0.71179,0.40571,-0.12998,0.048518,-0.13007,0.25248,-0.002485,-0.48705,-0.64009,-0.28301,-0.078984,0.6352,0.30367,0.099608,-0.053421,-0.07899,-0.28311,-0.20659,0.048598,0.40569,0.278,-0.74218,-0.41047,1.0689,-0.002479,-0.41061,-0.33409,-0.51266,-0.53809,-0.027956,0.78827,1.1964,0.27816,-0.25755,-0.58915,-0.56367,-0.28311,0.40555,0.76273,0.20168,0.50777,0.023047,-0.18104,-0.38505,-0.1555,-0.5891,-0.30861,-0.41061,-0.41057,0.25259,0.5332,1.0689,0.17611,-0.15553,-0.48712,-0.053537,-0.079039,0.15057,0.12504,0.71172,0.45665,-0.56356,-0.66556,-0.436,-0.232,-0.48711,0.45665,1.1454,0.073977,-0.20663,-0.35962,-0.3596,-0.35954,0.35464,0.32923,0.9413,0.023035,-0.61463,-0.35955,-0.07899,0.30368,0.50769,-0.028005,-0.23203,-0.35957,-0.46159,-0.4871,-0.20653,0.023041,0.27822,0.76275,0.8392,-0.35961,-0.38514,-0.33407,0.68626,0.48223,-0.41055,-0.48706,-0.53811,-0.25756,-0.43609,-0.027987,0.2016,0.60969,-0.2065,-0.41061,-0.25759,0.38013,0.35463,0.58418,0.074069,-0.38501,-0.33401,-0.18095,0.30355,-0.18106,-0.053488,0.04858,-0.027993,-0.053446,-0.283,-0.38506,-0.43615,0.17602,0.96679,1.0434,0.48222,-0.66567,-1.1248,-0.99725,-0.56359,-0.35953,0.48209,1.1708,1.0179,0.15057,-0.28303,-0.4106,-0.15553,-0.2575,-0.23197,-0.002405,0.2016,0.099559,-0.13002,-0.23204,-0.25754,0.22702,-0.23202,-0.002454,0.22708,0.32913,0.27809,0.099583,-0.51262,-0.48706,-0.10444,0.7883,1.0688,-0.3851,-0.38514,-0.41059,-0.13,-0.41058,-0.58914,-0.35957,1.0178,0.48219,0.27811,-0.002405,0.20164,0.27815,-0.027993,-0.6401,-0.43606,0.12499,0.15053,0.048549,0.099577,-0.078928,-0.33409,-0.2321,0.83922,0.89033,0.099613,-0.15548,-0.53813,-1.2013,-0.69108,0.20161,0.78818,0.25254,-0.15553,-0.181,-0.053439,0.35468,-0.10447,0.15054,0.048622,0.40561,0.15047,0.1505,-0.38507,-0.41052,-0.10447,-0.12999,0.2781,0.22708,0.15059,-0.18097,-0.13,-0.1045,-0.4871,0.074013,0.43107,1.0178,0.3547,-0.79314,-1.1503,-0.48711,0.78828,0.86477,-0.33404,-0.41068,-0.64018,-0.61463,-0.05339,1.0179,0.78825,0.20161,0.048518,-0.20656,-0.23204,-0.41058,0.074038,0.20161,-0.027974,-0.00251,-0.38506,-0.283,0.53329,0.68627,-0.13,-0.51266,-0.35963,-0.10453,-0.079063,-0.35954,-0.25751,0.32921,1.63,-0.002467,-0.33411,-0.64014,-0.28303,-0.00243,0.50763,-0.18101,-0.10448,0.099595,0.43113,-0.027956,-0.46155,-0.51264,0.48211,0.89026,0.17607,-0.71663,-0.48708,0.074111,0.63523,0.6352,-0.25757,-0.8187,-0.7167,-0.46162,-0.13,0.32914,0.8393,0.43118,-0.2065,0.048555,0.17606,-0.027993,-0.33405,-0.181,-0.078966,-0.079021,-0.078984,-0.2065,-0.002461,-0.027993,-0.1045,0.48219,0.71169,0.78813,-0.38507,-0.58907,-0.58908,-0.84411,-0.53805,0.099619,0.38011,0.22707,-0.028018,0.55866,0.048585,-0.48706,-0.28307,-0.053519,-0.43609,-0.71655,0.40556,0.50765,0.73721,0.55867,0.023047,-0.15549,-0.20652,-0.38508,-0.28305,0.43126,0.76277,0.09954,-0.48709,-0.25758,0.2271,0.023084,-0.64014,-0.43606,0.32916,0.68624,0.35458,-0.079051,-0.46161,-0.181,-0.12999,0.17607,-0.35956,-0.15551,0.5332,1.0944,0.074087,-0.71665,-0.12997,0.63526,-0.38511,-0.7932,0.12506,0.68624,-0.33407,-0.61463,0.20147,0.022883,-0.35964,-0.20646,0.45669,0.43121,0.55868,0.20161,0.09957,-0.38503,-0.33403,-0.13,-0.30856,-0.58915,-0.053525,0.40566,1.4259,1.4768,-0.41061,-0.56361,-0.35952,-0.56355,-0.61458,-0.25745,-0.15549,0.048494,-0.002479,0.20161,0.38014,0.60968,0.023023,-0.58908,0.40556,0.96673,0.099613,-0.33399,-0.58909,-0.30859,-0.078977,0.02301,-0.13001,-0.027944,0.58427,0.30368,-0.10445,-0.48705,-0.56356,-0.6911,-0.38505,0.15048,0.022937,0.40556,0.76267,0.78829,0.38021,-0.7166,0.35468,-0.002485,0.074069,-0.15551,-0.48714,-0.53815,0.17607,-0.05347,-0.35954,-0.33406,-0.002521,0.48217,0.3037,-0.12993,0.15057,0.38013,-0.13,-0.71662,-0.18101,0.17605,0.12506,0.12505,-0.25748,-0.38501,-0.10446,-0.07899,0.02301,0.074081,0.38011,0.73721,1.0179,0.09951,-0.71673,-0.89519,-0.66558,-0.12991,0.2527,0.074044,-0.027962,0.3291,-0.053506,-0.30855,-0.20652,-0.20651,-0.053476,0.22708,0.48215,0.40566,0.40568,-0.33401,-0.86974,-0.028023,0.4822,0.63519,0.48218,-0.48706,-0.64012,-0.28305,-0.58918,-0.56361,-0.20654,-0.078923,0.38024,0.58422,0.2526,-0.002491,-0.20653,-0.23207,0.66067,0.48216,-0.3851,0.074044,-0.078996,-0.20653,0.17606,-0.10444,-0.35956,-0.94619,-0.25759,1.4004,1.8341,-0.23204,-0.89521,-0.79319,-0.61462,-0.10449,0.048536,0.40561,0.25256,0.12502,0.58405,0.25256,-0.053323,0.27827,0.023108,-0.25752,-0.53814,-0.38513,-0.002521,0.048487,-0.0535,-0.078959,0.30364,0.074087,-0.33404,0.099546,0.83931,1.1708,0.17607,-0.92077,-1.0483,-0.99722,-0.69111,-0.15546,0.27815,0.25263,0.86467,0.81366,0.60969,-0.053482,-0.33402,-0.61454,-0.10447,0.20153,-0.028011,-0.18103,-0.18101,-0.078966,0.12513,0.27818,0.40566,0.074038,-0.76771,-0.53811,0.55869,1.1453,-0.10452,-0.61469,0.023017,-0.181,-0.15553,0.15064,-0.078917,-0.30846,-0.18099,-0.18105,0.20151,0.6862,0.30358,0.074013,-0.027956,0.30367,0.60971,-0.33398,-0.64014,-0.69115,0.30348,0.38013,0.55869,0.12507,-0.5381,-0.92065,-0.71659,-0.15546,0.68619,0.99224,0.12502,-0.86967,-0.48711,0.94128,0.96685,-0.10447,-0.41058,-0.61465,-0.18108,0.15055,-0.15548,0.099583,0.38015,0.15059,-0.053519,-0.41058,-0.51259,-0.53809,0.12505,0.99229,0.86477,-0.10455,-0.30856,-0.51261,-0.30853,0.38019,0.32916,-0.053446,-0.20649,0.48209,-0.15555,-0.69113,-0.30855,-0.15556,0.12499,0.55864,0.68622,0.27813,0.15061,-0.46154,-0.33401,0.27808,0.15059,-0.053488,-0.20653,-0.20649,0.022998,-0.028047,-0.078972,0.76277,0.15058,0.20159,-0.30854,-0.079002,-0.33404,-0.38508,-0.61456,-0.20643,0.38017,0.023017,0.32912,0.40565,-0.10447,0.58409,-0.053482,-0.58913,-0.43609,-0.027962,0.17607,0.2271,-0.10452,-0.027974,0.12511,-0.5636,-0.53807,0.94135,0.83931,-0.28308,-0.48718,-0.94625,-0.48713,-0.15551,0.32915,1.1964,0.25259,-0.41061,-0.33405,-0.18098,0.27809,0.20157,0.15063,-0.002399,-0.10453,-0.56363,-0.20656,0.81379,1.8851,0.17616,-0.79321,-1.2778,-1.1503,-0.74218,-0.15553,0.30358,0.17611,0.22716,0.30368,0.38014,-0.15548,-0.15549,-0.002467,0.20155,0.30358,0.38011,0.09954,-0.053531,0.32911,-0.61457,-0.43604,-0.027938,-0.38503,-0.002479,-0.028054,-0.51265,-0.43608,0.25268,1.2474,0.96677,0.15053,-0.6401,-0.18112,-0.20654,-0.25751,-0.20652,0.15053,0.15058,0.22714,0.099644,-0.3595,-0.58904,0.32912,0.48212,0.32912,0.20156,-0.51264,-0.35964,0.25257,0.074057,-0.56354,-0.61457,-0.18097,0.76274,0.63523,0.02301,-0.33409,0.023041,-0.18097,-0.35956,-0.2066,-0.002491,0.22712,0.3036,-0.002467,-0.35951,0.43109,0.32908,-0.41046,-0.12999,-0.23203,-0.46155,0.2271,0.50765,0.12513,0.38005,0.99219,-0.078996,-1.0227,-0.58904,-0.43604,-0.33409,0.22706,0.6352,0.66067,0.17605,0.50767,-0.25756,-0.5381,-0.51256,-0.43604,-0.18101,0.2781,0.22711,0.30363,0.27815,0.074044,-0.46156,-0.13002,-0.00251,-0.18105,-0.10451,0.58418,0.55868,0.43121,0.074026,-0.53815,-1.0992,-0.002516,0.32907,0.40569,-0.02792,-0.69108,-0.71663,-0.41061,-0.10458,0.48211,0.66081,1.0942,0.83915,-0.48705,-0.35945,-0.64007,-0.58912,-0.53813,-0.43609,0.15059,0.78825,0.53321,0.12503,0.048487,-0.35958,-0.12995,0.1251,0.17606,0.45661,-0.41057,-0.56364,-0.43607,-0.23197,0.58426,0.15061,0.048536,-0.38512,-0.35959,0.35456,0.32911,0.4056,0.22711,-0.15546,-0.283,0.023072,0.48216,-0.078996,-0.53812,-0.56358,-0.15554,0.45658,0.15063,0.25266,0.25263,-0.20652,-0.15553,-0.25754,0.15046,0.15054,-0.078947,-0.15542,-0.18095,0.22707,0.35464,0.43113,-0.18101,-0.28304,-0.20655,-0.35957,-0.30855,-0.05347,0.048536,1.2219,0.6097,-0.18103,-0.51264,-0.66561,0.099613,0.43117,-0.053562,-0.28308,-0.61457,-0.30847,0.09957,-0.078996,-0.13,-0.18098,0.60959,0.89023,0.1251,-0.20643,-0.41049,-0.18103,0.048469,-0.10452,-0.078959,0.074111,-0.28301,-0.13009,0.20147,0.8137,0.43123,0.074142,-0.15544,-0.30854,-0.56359,-0.69119,-0.51265,-0.35963,0.12505,0.35466,0.71176,0.27813,-0.12993,-0.002485,0.17598,-0.15557,-0.12998,0.25267,0.58428,-0.02792,-0.41055,-0.18105,-0.48707,-0.053519,-0.18107,-0.002467,0.099515,-0.25756,0.1506,0.38023,0.45675,0.83933,-0.43609,-0.99734,-0.71676,-0.15563,0.48204,0.0741,-0.12987,-0.078861,-0.027871,0.2526,0.20156,0.12502,-0.3086,0.20159,0.35465,0.50762,0.71171,-0.20652,-1.2013,-0.5891,-0.002479,0.048555,-0.15548,-0.2575,-0.30856,-0.027993,0.35461,0.45665,0.91581,0.25265,-0.56358,0.099442,-0.23205,-0.46159,-0.41058,0.27812,0.50769,0.38015,-0.027925,-0.38509,-0.13004,0.074038,-0.18105,-0.15554,-0.079026,0.30355,0.12507,-0.053439,-0.23194,0.04858,0.12507,0.30361,0.023041,-0.002528,0.099436,0.12502,0.023072,0.2527,0.023139,-0.23197,-0.41058,-0.20656,-0.35959,-0.053513,0.22713,-0.15548,-0.30856,-0.13002,0.32909,0.53325,0.86478,0.43112,-0.46156,-1.1757,-0.84422,-0.35962,-0.079002,-0.10445,-0.053451,0.43118,0.22711,0.022998,-0.028018,-0.25754,-0.053544,0.20157,0.60976,-0.12998,-0.23204,-0.28308,-0.43604,0.53307,0.55859,0.12504,-0.46153,-0.48699,-0.027871,-0.15545,-0.35949,-0.027962,0.15053,0.40557,0.074044,-0.51256,0.66061,0.58417,-0.2065,-0.41056,-0.28308,-0.002491,-0.10449,-0.00243,-0.12996,-0.078947,-0.20649,-0.002454,0.09954,0.022974,0.30353,0.2271,0.023029,0.32907,0.22704,0.20153,0.023005,-0.0535,-0.48703,-0.23196,-0.30849,-0.10449,0.099564,0.25263,0.48216,0.20156,-0.41061,-0.38511,-0.30855,0.25263,0.2271,0.30364,0.12509,-0.23205,-0.027993,-0.027993,-0.15553,-0.1045,0.12506,0.12507,0.25261,0.023078,0.12507,-0.078972,-0.12999,0.022986,0.125,-0.002443,0.68619,0.023206,-0.002467,-0.7676,-0.74206,-0.30849,0.048506,-0.18105,-0.30857,-0.25756,0.12504,0.53317,0.35465,0.35465,0.12504,0.022974,-0.33409,-0.13001,-0.078959,-0.51256,-0.053446,0.55864,0.48217,-0.33401,-0.58912,-0.43609,-0.28307,0.048549,0.30358,0.68612,0.09951,-0.23201,-0.078941,-0.07891,-0.12995,-0.078984,-0.15554,-0.13005,-0.079033,0.17604,0.60969,1.4004,0.38017,-0.33411,-0.053611,-0.76766,-0.8696,-0.58905,-0.02798,0.22709,0.32916,0.27811,0.22709,-0.30847,0.25253,0.48202,-0.20649,0.15065,-0.38498,0.48215,0.023059,-0.25753,-0.078953,0.17607,-0.56361,-0.79321,-0.15557,-0.23207,0.074013,0.53311,0.15059,0.12508,0.22713,-0.053421,0.099601,0.50771,0.17608,-0.10455,-0.10453,-0.38509,-0.079045,-0.12996,-0.20643,0.30364,0.12508,-0.002485,-0.028029,0.32907,0.023065,-0.33399,-0.20647,-0.002418,-0.053433,-0.078941,-0.1045,0.022992,-0.25756,-0.053562,-0.13006,0.2525,-0.027907,-0.20642,-0.027931,0.099552,0.20156,0.45661,0.35462,-0.13002,-0.51254,0.30354,0.20153,-0.02795,0.074075,0.023041,-0.2575,-0.13004,-0.23207,0.20157,-0.12992,-0.23196,-0.10449,-0.002491,0.55867,0.4822,0.3291,-0.053525,-0.46159,0.023023,-0.053488,-0.35956,0.17598,-0.028005,-0.10442,0.48225,0.22715,-0.053464,-0.35952,0.022998,0.17609,-0.078972,-0.25751,0.074038,0.43113,-0.078928,-0.35954,-0.23203,-0.25751,-0.30854,-0.56352,0.68611,0.55863,0.20162,-0.002387,-0.12993,-0.10451,0.099515,0.15054,0.099564,0.074033,0.12504,-0.053482,-0.23196,-0.43602,0.02301,0.43101,-0.15554,-0.28303,-0.33404,-0.30854,-0.23197,0.17607,0.58413,0.50762,-0.48702,-0.38502,-0.28303,-0.053506,0.43108,0.76267,0.55865,-0.4105,-0.23209,-0.13004,0.099503,-0.15556,-0.38505,-0.15551,0.17605,0.12509,-0.078923,-0.027962,-0.12998,0.04858,-0.10445,0.12507,0.63515,-0.10449,0.15046,0.27797,-0.18105,-0.15548,-0.12995,-0.20644,-0.30849,-0.20651,-0.10447,0.83925,0.30363,-0.15551,-0.25753,-0.053513,-0.23206,-0.053488,-0.13,-0.23205,0.35456,-0.07899,-0.002485,-0.027895,0.50768,0.38018,-0.18097,-0.30849,-0.56355,-0.053519,0.55859,-0.30855,0.022974,-0.10455,-0.053495,0.099564,-0.20647,0.2526,0.17611,-0.027962,0.17611,0.17616,-0.027969,-0.3596,-0.053525,0.099521,-0.25753,-0.51254,0.40555,0.17606,-0.10437,0.50773,0.45663,-0.13008,-0.43607,-0.64011,-0.25749,0.17608,0.22708,0.27806,0.17611,0.32916,-0.18102,-0.33407,-0.25759,-0.33403,-0.10445,0.60976,0.1761,-0.002516,-0.02806,-0.28303,0.17604,0.099546,-0.12996,0.12513,-0.28295,-0.13,0.17607,0.30359,0.25254,0.12502,-0.02798,-0.2065,-0.078984,-0.15546,0.099546,0.12509,0.27811,0.20157,-0.002467,-0.053464,-0.283,0.12511,0.099626,-0.078977,0.074013,-0.25755,0.048482,0.099497,-0.28307,0.15057,0.58424,-0.053439,-0.74212,-0.46153,-0.002448,0.63507,0.4056,0.15059,-0.002479,-0.053495,-0.33406,-0.48708,-0.35954,-0.002423,0.17612,0.30363,0.25257,-0.002479,0.048506,0.15059,-0.079002,-0.46155,-0.30849,0.099577,0.048518,0.12508,0.35465,-0.33404,0.12509,0.15059,-0.51269,-0.30869,-0.20654,-0.18092,0.30363,0.20158,-0.385,-0.18094,0.1251,0.32907,0.30358,0.3036,-0.4105,0.022992,0.25252,0.099552,0.023059,-0.12999,-0.283,-0.12998,0.22706,0.074044,0.048518,0.15059,0.12512,-0.25746,-0.79309,-0.18102,-0.10456,0.073953,0.4056,0.20163,0.27812,0.20163,0.12504,0.25256,-0.053415,-0.078947,-0.20652,-0.25754,0.074038,-0.4106,-0.33405,-0.027987,0.15059,0.35465,0.023121,0.55859,0.38008,-0.027956,-0.43604,-0.43607,-0.46162,-0.38508,0.2271,0.91583,0.15064,-0.053519,-0.46162,-0.25754,0.048549,-0.10448,0.048567,0.17609,-0.027944,0.68611,0.58412,0.023035,-0.33401,-0.07891,0.17614,0.22707,-0.33412,-0.48712,-0.43609,-0.64008,-0.18099,0.023065,0.023035,0.50768,0.83924,0.43114,-0.002497,-0.25759,-0.35963,-0.1045,-0.10447,-0.078904,0.074118,-0.12994,-0.078953,0.12499,0.45658,0.20166,-0.20647,-0.35954,-0.20654,0.048487,-0.053537,0.048518,0.35461,0.22709,-0.10449,-0.2065,-0.25747,-0.002405,0.20164,0.2526,-0.002448,0.3545,0.12502,-0.23199,-0.283,-0.002479,-0.1045,-0.15551,-0.053458,-0.002503,0.074044,0.023059,-0.18095,1.1963,0.43111,-0.38506,-0.48706,-0.56356,-0.33401,-0.05347,0.22709,0.12508,-0.13001,0.63508,0.55861,-0.027962,-0.15549,-0.027944,-0.20647,-0.053458,-0.15551,-0.43605,-0.38504,-0.053488,0.20158,0.38016,0.27812,-0.10451,-0.20652,-0.30853,-0.053544,0.022998,0.43108,0.22715,-0.02792,0.074093,-0.25748,-0.35952,-0.078959,0.074057,0.22702,-0.2066,-0.13004,-0.002491,-0.002454,0.12508,0.1506,0.27814,0.1506,-0.33401,-0.13002,0.17607,0.22714,0.35456,0.22697,0.27807,-0.64005,-0.436,-0.23197,-0.05347,-0.002461,0.30355,-0.078972,-0.07899,-0.027987,0.074038,0.12505,0.27813,0.15063,0.023108,-0.027925,0.048463,0.07391,-0.002546,-0.15554,-0.15548,-0.33396,0.074044,-0.002454,0.023065,0.30365,0.68625,-0.13,-0.38508,-0.2831,0.17604,0.048561,-0.10447,-0.25749,-0.10452,-0.053549,-0.028005,-0.002454,0.35468,0.15062,-0.38505,-0.232,0.22715,0.4312,0.30365,0.073989,-0.18106,-0.61463,-0.48713,-0.28308,-0.002528,0.27809,0.35466,-0.027882,-0.053439,-0.027969,-0.027969,-0.028005,-0.027987,-0.15553,-0.15548,-0.15543,0.35468,0.8138,0.048531,-0.48709,-0.46159,-0.69109,0.40555,0.45657,0.074026,-0.1045,-0.078972,0.023054,-0.027931,-0.10445,-0.027944,0.20159,0.55867,0.55859,-0.23206,-0.6656,-0.35947,0.074075,0.048555,0.074062,0.12504,0.02298,-0.079051,-0.15554,0.17609,0.099608,-0.053427,0.02309,0.12505,0.27811,0.27817,0.27813,-0.28305,-0.41061,-0.028018,-0.28303,-0.15551,0.048549,0.83926,0.30364,-0.23201,-0.46157,-0.30858,0.074013,-0.28308,-0.38506,0.78827,0.89027,0.68616,0.023023,-0.38509,-0.5381,-0.46156,-0.1045,-0.05347,-0.12997,-0.078928,0.25266,0.48219,0.55869,0.43115,0.023017,-0.48713,-0.43611,-0.10456,0.074026,0.099559,-0.027895,-0.027944,-0.46158,-0.33407,0.1251,1.0178,0.48218,-0.38505,0.073965,-0.43609,-0.74211,-0.10443,0.48221,0.3801,-0.18104,-0.30859,-0.18105,0.099534,0.53317,0.25262,-0.15542,0.35458,-0.002503,-0.30851,-0.027931,0.023029,0.32908,0.30358,0.048536,-0.38505,-0.283,-0.15547,-0.053513,-0.181,0.048555,0.17611,0.099613,-0.13,0.099552,0.099552,-0.053513,-0.15553,-0.002516,0.17609,0.023078,-0.078959,0.048567,-0.23205,-0.13007,-0.38508,-0.15546,0.099577,0.15056,0.09957,0.099559,0.15054,0.074026,0.15052,0.17607,0.12511,-0.33396,-0.58905,-0.23203,0.099521,-0.002472,-0.18103,0.15056,0.27808,0.074057,0.25262,0.25264,0.2781,-0.43607,-0.58914,-0.18101,0.32909,0.17607,0.30363,0.048598,-0.28299,-0.35951,-0.18099,-0.35952,0.022961,0.099521,0.099521,0.099521,0.45668,0.35467,-0.28297,-0.28298,-0.027993,-0.33406,-0.002485,0.074013,-0.33403,0.68619,0.25259,-0.23205,-0.1045,-0.20648,0.099559,-0.027956,-0.079008,-0.30857,-0.20653,-0.053488,0.40571,0.60974,0.73729,-0.23201,-0.23203,-0.23206,-0.2066,-0.13007,-0.15559,-0.07899,0.12507,0.25262,0.09957,-0.20644,-0.10445,0.1251,0.30365,0.048536,0.32906,-0.02798,-0.028005,-0.053513,-0.20649,-0.28303,-0.30855,-0.3341,-0.23203,0.15061,0.6862,0.45667,0.40566,-0.15553,-0.56361,-0.41057,-0.10452,-0.181,-0.15554,0.6607,0.50766,0.25256,-0.20652,-0.053506,0.12509,-0.078892,-0.334,-0.23197,-0.078996,-0.028042,0.09951,0.68625,0.58422,-0.07899,-0.41056,-0.43598,-0.10445,-0.28303,-0.23203,-0.07899,-0.25748,0.35466,0.55865,0.40555,-0.027987,-0.43601,-0.30851,-0.027974,0.35458,-0.027993,-0.35954,-0.12997,0.15058,0.15062,0.1506,0.074033,0.17605,0.27809,-0.18104,-0.38503,-0.46155,-0.35954,-0.15553,0.43107,0.15054,-0.002418,0.048585,0.53317,0.20156,-0.053531,-0.23203,-0.43604,-0.46151,-0.20645,0.60974,0.63522,0.30358,-0.18111,-0.7677,-0.25757,0.17606,-0.027987,-0.2575,-0.027925,0.099577,0.30363,0.074062,-0.053476,-0.35955,-0.35956,0.32908,0.30358,0.25259,0.38019,0.35465,-0.18099,-0.48713,-0.46165,-0.33412,-0.15554,0.2271,0.1506,0.35465,-0.078984,-0.12998,-0.12997,-0.18098,-0.23194,0.30364,0.63511,-0.20655,-0.25752,0.074051,-0.20647,-0.23203,0.12505,0.50765,0.25257,-0.028018,-0.35959,-0.079057,-0.027993,0.048573,0.15062,-0.027931,-0.23201,-0.027993,0.27809,0.76268,0.40557,-0.41058,-0.61457,-0.38502,0.15063,0.89033,0.40563,-0.13002,-0.74212,-0.66568,-0.028018,0.60968,0.30361,-0.38509,-0.76767,-0.6656,-0.10447,0.53312,0.7627,0.12504,0.50771,1.6045,0.76276,-0.61467,-1.5074,-1.5584,-0.92067,-0.15548,0.83928,0.91578,0.15056,0.30355,-0.027987,-0.23205,-0.10452,-0.18095,0.17617,0.4057,0.71174,0.73723,0.30356,-0.48711,-0.43607,-0.58911,-0.69113,-0.46154,-0.10445,0.43115,0.81371,0.45662,-0.41058,-0.20652,0.38016,0.099564,-0.28303,-0.079021,-0.002472,-0.002467,-0.079008,-0.078953,-0.079008,-0.053519,0.099595,0.023072,-0.027956,-0.10448,-0.1045,-0.02795,-0.23204,0.22709,0.73721,0.2526,-0.10449,-0.30854,-0.46156,-0.25748,-0.23201,-0.23207,-0.13003,0.48209,0.68615,0.30359,0.15059,0.22715,-0.078966,-0.15547,-0.12999,-0.18098,-0.10449,-0.35958,-0.20655,0.71165,0.50768,0.074087,-0.30851,-0.078959,-0.53802,-0.43604,-0.41057,-0.15555,0.32907,1.3494,0.25257,-0.35958,-0.38505,-0.48707,0.023072,-0.23196,-0.181,-0.053476,0.22711,0.50765,0.22708,-0.10453,-0.25753,-0.02792,-0.002374,-0.10444,-0.078996,0.27805,0.32905,-0.13004,-0.10452,-0.33404,-0.027987,-0.20652,-0.35955,-0.181,0.12509,0.81375,0.73725,0.43111,0.02301,-0.53814,-0.51257,-0.43607,-0.46154,-0.232,0.55868,0.60968,-0.05347,-0.12998,0.45668,0.48219,-0.002503,-0.48715,-0.43608,0.15057,0.35462,0.35462,0.099577,-0.48706,-0.18102,-0.1555,-0.10446,0.43115,0.40559,-0.10455,-0.079008,0.40567,0.27812,-0.3341,-0.3341,0.3291,0.22712,-0.002423,-0.25753,-0.028018,0.12504,-0.027974,0.17607,-0.10447,0.45659,0.3801,-0.079021,-0.3085,-0.3595,-0.07899,0.22707,0.45663,0.53312,-0.48713,-0.25754,0.15071,0.86475,0.43113,-0.43604,-0.89521,-0.71668,-0.51262,-0.58913,-0.28307,0.68619,0.99232,0.7627,-0.30851,-0.053427,0.22711,0.48214,-0.20652,-0.46158,-0.33406,-0.23204,-0.23203,-0.13,-0.027956,0.023096,0.63523,0.27817,0.4311,0.53314,-0.18101,-0.51263,-0.61466,-0.33409,-0.25753,0.048573,-0.053433,0.12504,0.22708,0.15058,0.43119,0.48221,0.40567,-0.10449,-0.13,-0.58914,-0.64015,-0.46161,-0.02798,0.53319,1.0688,0.17601,-0.13007,0.25262,-0.46153,-0.74214,-0.53808,-0.053464,-0.002461,0.2271,0.55865,0.83928,-0.002467,-0.028047,-0.25759,-0.25751,0.02309,0.09957,-0.20648,-0.053451,0.50768,-0.18105,-0.43612,-0.43611,-0.15552,0.17613,1.0434,1.0688,-0.23206,-0.51263,-0.53814,-0.71664,-0.5381,-0.027993,0.32913,0.25264,0.25266,0.25262,0.09954,-0.30851,-0.25758,-0.10454,0.45664,0.9158,-0.027944,-0.15547,-0.64011,-0.18106,0.12501,-0.43607,-0.13009,-0.002448,0.40571,0.25263,0.30365,-0.027962,-0.43607,-0.58914,-0.43611,0.099564,0.48216,0.2271,0.17606,-0.053495,0.15061,0.43123,-0.35957,-0.25756,0.20155,0.4311,0.099521,-0.43607,0.023096,-0.46157,-0.12998,0.50767,-0.15548,-0.10451,0.023054,-0.1045,-0.15553,-0.18104,-0.10451,0.35464,0.63523,0.6352,-0.15553,-0.10447,-0.33403,-0.38507,-0.18101,0.38014,0.20156,-0.28308,-0.25752,0.38016,0.1251,0.12507,-0.28302,-0.25749,-0.15555,-0.028029,0.45669,1.0688,0.12501,-0.53809,-0.48708,-0.10447,0.099601,0.048555,-0.35959,-0.3341,-0.13002,0.17603,1.0689,1.528,0.15065,-0.81868,-0.97173,-0.64017,-0.56367,-0.30861,0.3546,0.68622,0.074093,-0.43605,0.09951,0.099528,0.6607,0.91586,0.30368,-0.94622,-0.92074,-0.43615,-0.053446,-0.002443,0.25255,0.09957,0.96681,0.1251,-0.79321,-0.6657,-0.13002,0.53322,1.4005,0.58421,-0.79319,-1.0738,-0.51269,-0.027956,0.58424,0.27811,-0.38506,0.73722,0.81373,-0.15553,-0.79312,-0.4106,-0.15555,0.074038,0.53319,0.58421,0.68623,0.38015,-0.51255,-0.9207,-0.30858,0.73721,-0.12999,-0.35956,-0.18101,0.074038,0.099583,0.12509,0.38008,0.35461,0.023041,-0.25752,-0.2065,-0.38505,-0.25755,0.0485,-0.10449,1.2729,1.2219,-0.35955,-0.99725,-0.69119,-0.69118,0.048536,0.81382,0.48222,0.074069,-0.20654,-0.76767,-0.15546,0.86478,0.78822,-0.25756,-0.51265,-0.5636,0.25252,0.45666,0.50772,0.048634,-0.078923,-0.41054,-0.3086,-0.13004,-0.10452,-0.20653,-0.15552,0.17607,0.45664,0.25264,0.63524,0.32912,-0.46161,-0.4616,-0.2065,-0.15551,-0.18102,-0.18104,0.099595,0.27812,0.73725,-0.18099,0.17608
0.12501,0.12502,-0.078977,0.15054,0.27806,0.074062,0.023059,-0.053433,-0.15547,0.023041,0.099546,-0.002479,-0.23199,0.12503,0.17604,-0.027974,-0.027969,-0.002448,-0.053451,0.048543,-0.002461,-0.078953,-0.053476,-0.027987,0.099521,0.17604,0.15054,0.099559,0.12508,-0.027944,-0.30849,-0.30849,-0.15549,-0.13,0.074026,0.12505,-0.23198,0.35456,0.45659,0.15058,-0.64003,0.17602,0.43107,-0.078947,-0.35949,-0.28298,-0.002454,0.074044,-0.027974,-0.10449,-0.38503,-0.078996,0.02301,-0.079002,-0.002485,0.048531,-0.05347,-0.15548,0.32907,0.099528,-0.15551,-0.23201,-0.13001,-0.002491,0.048536,-0.002461,0.09957,0.048573,-0.002436,-0.078966,0.048518,0.074013,0.074008,-0.28302,0.023023,-0.027974,-0.18097,-0.078947,-0.027944,-0.002448,0.048536,0.048543,0.17604,0.15052,0.12503,0.048536,-0.15549,-0.10447,-0.002423,-0.027944,-0.053464,0.023047,0.074038,0.099546,0.09954,0.09957,-0.12998,-0.078959,-0.12998,-0.38499,0.17603,0.45655,0.074026,-0.15548,-0.02795,0.048561,0.17607,0.12508,0.048561,-0.027969,-0.078977,-0.12998,-0.10447,-0.002479,-0.05347,-0.10447,0.023041,-0.078972,0.023054,0.048536,0.12503,0.22705,0.15053,0.12503,-0.053476,-0.053439,-0.15546,-0.12997,-0.053451,-0.078966,-0.027962,-0.02798,-0.002497,0.02301,0.099534,-0.027969,-0.002443,0.074069,0.023065,0.048536,-0.07899,0.023054,0.25256,0.023017,-0.053488,-0.12998,0.023023,-0.12998,-0.02795,-0.053451,-0.002461,0.22705,0.25254,-0.027969,0.023017,-0.053476,0.023065,-0.027931,-0.23201,-0.48705,-0.079014,0.78816,0.86479,0.12509,-0.33405,-0.69116,-0.25753,0.22705,0.45666,-0.20646,-0.28303,0.43112,0.32911,-0.079008,-0.20656,-0.38506,-0.61459,0.22712,0.43107,-0.078996,0.023065,0.38019,1.3495,1.477,0.35462,-0.76778,-1.6605,-0.79318,-0.53818,-0.33408,0.15057,-0.10452,-0.028005,1.7576,2.5993,0.53324,-1.6859,-1.788,-1.1248,0.50767,1.5535,0.074057,-1.2014,-1.2523,0.35471,0.63521,0.20155,-0.10452,-0.25751,-0.48708,-0.30862,0.4567,1.3494,1.2984,-0.053482,-0.89522,-0.053488,0.78822,-0.84415,-1.7625,-0.89529,0.73723,0.55875,-0.30855,-0.53814,0.43101,-0.10448,-0.56353,0.12507,0.45671,1.528,1.1964,-0.25754,-0.61468,-1.0993,-0.7423,0.50762,0.43123,1.7577,1.9107,-0.18112,-2.0686,-1.6096,-0.10463,0.30358,-0.002454,-0.23198,-0.20645,0.35462,0.27811,0.27811,0.32917,0.40563,0.074013,0.1761,0.60973,0.43113,-0.46158,-0.51259,0.074026,0.099552,-0.51263,-0.53811,-0.23198,0.2526,0.45663,0.50761,-0.94617,-0.92062,-0.43609,0.074013,0.5587,0.48219,-0.053451,0.9923,0.83915,-0.079057,-0.84412,-0.43596,-0.18097,-0.38505,-0.74218,0.12505,0.6607,0.58419,0.023041,-0.25753,-0.48714,-0.18101,0.45663,0.83926,0.50768,-0.002485,-0.02795,-0.28302,-0.48713,-1.3543,-0.86967,1.1454,2.0636,1.1453,-0.33409,-1.5584,-1.3799,-0.61467,0.35454,0.78821,-0.30848,-0.6401,0.25265,1.5279,1.5534,0.22712,-0.33405,-0.58911,-0.97179,-0.99729,-0.12999,1.1709,0.91583,-0.25756,-0.99726,-0.002491,0.78827,0.35464,-0.46164,-0.89519,-0.28305,-0.10445,0.074057,0.40561,0.30365,-0.12996,-0.10453,0.38006,0.76272,0.22715,-0.078935,-0.64013,-0.35957,-0.25756,-0.18104,-0.56356,0.17611,0.8137,0.48211,-0.28306,-0.86963,-0.078935,0.63523,0.43116,0.12506,-0.89528,-0.76772,0.17609,0.27814,-0.41058,0.20159,1.1709,1.1454,0.048506,-0.64015,-0.74213,-0.48711,-0.079063,-0.079045,-0.53807,-0.078935,0.83936,0.55874,0.048555,0.15046,0.073977,0.02301,-0.20652,-0.28299,0.048616,-0.053451,0.074069,0.048567,-0.64021,-0.66566,0.12509,1.8851,0.78824,-0.20661,-0.53815,-1.0483,-0.56362,0.3036,0.5332,-0.078977,-0.10449,-0.15546,-0.28301,-0.5126,0.20155,0.99234,0.91583,0.58419,0.074026,-0.53817,-0.99728,-0.61468,0.50764,0.96679,0.048598,-0.23192,0.27818,-0.30855,-0.51263,-0.002436,-0.76766,-0.25759,-0.18103,0.048549,0.048549,0.30363,0.4312,0.5332,0.27811,0.43107,0.22706,-0.2575,-0.33404,-0.18099,0.048549,-0.15549,-0.002472,-0.13,0.38013,-0.10449,-0.20653,-0.35957,-0.66567,-0.18101,0.71173,0.71179,0.35472,0.43121,-0.48714,-0.86979,-0.64019,-0.69118,0.2271,1.2983,0.4312,-0.18086,-0.64003,-0.53811,-0.053519,0.073977,-0.33412,-0.2576,0.43107,0.22708,0.76281,1.5025,0.55864,-0.7166,-0.35949,-0.53806,-0.86971,-0.53815,-0.33409,-0.51259,0.17612,0.66072,1.1453,0.17613,-0.13005,-0.58914,-0.28307,0.27808,0.48213,-0.35953,-0.48705,-0.2575,-0.48705,-0.20655,0.35464,0.68617,0.81369,0.1251,0.17606,-0.15556,-0.66572,-0.81878,-0.76767,0.17612,0.81379,0.023072,-0.25754,-0.25753,-0.078972,0.22713,0.099588,0.074062,-0.02795,0.2526,0.99227,0.30357,-0.56362,-0.69113,-0.053519,0.38014,0.4822,0.12509,-0.56359,-0.43607,-0.51262,-0.20657,-0.56362,0.074013,0.71171,0.15063,-0.38503,0.2016,0.63519,-0.25753,-0.43604,0.023035,0.20157,0.12506,-0.28303,-0.33405,-0.33407,-0.053421,0.78829,1.0944,0.32907,-0.18105,-0.64016,-0.56363,-0.66566,-0.51262,0.27803,0.30366,-0.053384,0.074111,-0.053439,-0.027974,0.43111,0.3291,0.17614,-0.002412,0.074081,-0.35959,-0.43614,-0.30858,-0.053476,0.2016,0.2016,-0.13002,0.32909,0.099595,-0.23205,-0.5126,-0.51257,0.40565,0.66075,0.27814,-0.053482,-0.46157,-0.66565,-0.20654,0.07402,0.38013,0.22712,0.12507,0.099521,0.17606,0.048549,0.25256,-0.078996,-0.35954,-0.10448,0.25263,0.32912,0.15059,-0.027882,0.40558,-0.18101,-0.35959,-0.43609,-0.20645,0.20164,0.35468,0.074087,-0.10449,0.074057,0.048525,0.048512,-0.002516,0.35453,-0.002472,-0.10445,-0.10444,-0.25745,-0.23201,0.22706,0.099546,0.40567,0.15062,-0.35959,-0.23208,-0.00251,0.0741,-0.02792,-0.078898,0.02301,0.12502,-0.33409,-0.35959,-0.078972,0.074057,0.43118,-0.12995,-0.33396,-0.283,-0.18092,0.89017,0.86463,0.099534,-0.58908,-0.46154,-0.053451,-0.12998,-0.12998,0.099626,0.45662,-0.10453,-0.20656,-0.053476,0.32907,0.3291,0.023054,0.1251,-0.1045,-0.56361,-0.33405,0.099559,0.40559,0.35458,0.38013,0.73725,0.048555,-0.41055,-0.6146,-0.28306,-0.30859,-0.1045,0.76266,0.099577,0.27812,0.20164,0.074111,-0.38506,-0.10455,0.25248,0.40563,0.27816,-0.25753,-0.48708,-0.3851,-0.15555,-0.41051,-0.12993,1.1963,0.96672,-0.46151,-0.41057,-0.23202,-0.64013,-0.61465,0.38019,0.86477,0.9668,-0.053482,-0.76769,-0.69118,-0.20654,0.50769,0.099528,0.048506,0.022998,-0.46157,-0.89515,0.048659,0.94135,0.76272,0.60962,-0.15556,-0.25757,-0.38505,-0.25753,0.12502,0.099588,-0.053409,-0.027907,0.023035,0.099534,0.4311,0.27805,-0.25752,-0.25751,0.43115,0.048573,0.099668,0.023084,0.20156,-0.41063,-1.1248,-0.079081,0.68608,0.76273,0.2017,-0.53806,-0.58908,-0.33402,-0.078959,-0.13,0.43108,0.55864,0.38014,-0.12998,-0.002461,0.17609,0.40563,0.27809,-0.20651,-0.23201,-0.58916,-0.56366,-0.18097,0.78822,0.09957,-0.10449,-0.20645,-0.28303,0.048518,0.12503,0.38013,0.40565,0.099564,-0.43612,-0.61463,-0.002436,0.25267,0.99235,-0.002301,-0.23205,0.32891,-0.53818,-0.51261,-0.078966,0.12509,-0.15544,-0.41052,0.12509,0.53317,0.30363,-0.28306,0.023017,0.48216,0.53313,0.25254,-0.38507,-0.84412,-0.58911,0.074038,0.20161,0.22711,0.40565,0.22707,-0.10453,-0.1045,-0.33402,0.099613,-0.20647,-0.13002,-0.027993,-0.027969,0.40563,0.76266,-0.35954,-0.1555,0.27812,-0.28301,-0.35956,-0.10447,-0.002436,-0.078984,-0.53813,-0.23208,0.63516,0.73725,0.50769,-0.3595,-0.56358,-0.38511,-0.1045,0.074057,-0.28294,0.63509,0.30353,-0.35952,-0.15543,-0.35953,0.48214,0.30364,-0.002485,-0.51262,-0.28311,-0.079051,0.3291,0.35465,0.55872,0.048585,-0.28302,-0.15553,-0.38511,-0.23207,0.12502,0.30361,0.15064,-0.18098,-0.28302,-0.12999,0.023059,0.048531,0.35458,-0.23207,-0.15553,0.48212,0.96676,0.53322,-0.48705,-0.61458,-0.48706,-0.25753,-0.13001,0.25254,-0.027993,0.09951,0.7627,0.78826,-0.078972,-0.79319,-0.69115,0.25263,0.68622,0.023005,-0.71664,-0.23202,-0.4105,-0.33401,0.12505,0.4056,0.76267,0.48211,0.2526,0.15056,-0.15554,-0.23206,-0.10447,0.048592,0.048604,-0.58901,0.15052,0.048487,-0.30854,-0.18092,0.78822,0.20158,-0.53812,-0.20653,0.38015,0.35465,-0.25753,-0.61461,-0.0535,0.30354,0.55852,0.099473,-0.15548,-0.28292,-0.30842,-0.053353,0.27814,-0.053525,-0.053495,0.25257,0.4056,0.099588,-0.078996,-0.15545,0.43106,0.35453,-0.30856,-0.46156,-0.41054,0.17611,-0.12998,-0.25749,-0.2575,-0.15551,-0.15552,-0.13002,0.25256,0.3801,0.15062,0.27812,0.074062,0.023059,0.074033,-0.10449,0.20164,-0.18098,-0.61467,0.22704,0.40566,0.35461,-0.18098,-0.58911,-0.43607,-0.51258,-0.48706,0.81381,0.86479,-0.07899,-0.30854,-0.25756,-0.25755,-0.30855,-0.00251,0.27813,0.38016,0.25264,0.27812,0.048549,-0.30855,-0.028029,0.278,-0.43606,-0.53806,0.20165,0.30364,-0.002423,-0.027962,-0.20653,-0.43609,0.15049,0.99227,0.53317,-0.15549,-0.48707,-0.6146,-0.66563,-0.23202,0.58418,0.55872,0.38011,0.38006,0.048549,-0.232,-0.43608,-0.20653,-0.002436,0.074081,-0.33402,0.25259,0.48216,-0.1045,-0.053513,0.12505,-0.51262,-0.33407,0.30363,0.4312,0.71171,0.35463,-0.43613,-0.61465,-0.4616,-0.15549,-0.23201,-0.002418,0.30368,0.2016,-0.20655,0.048518,0.12502,-0.053519,0.048494,0.22712,0.53322,-0.027907,0.023108,-0.13001,0.048463,-0.38508,-0.76769,-0.20651,0.5332,0.53321,-0.20651,-0.46158,-0.43608,-0.20652,0.17607,0.32909,0.32912,0.074038,-0.69101,0.27805,0.22703,-0.078928,-0.35948,-0.10447,0.96678,0.7627,0.20157,-0.51261,-0.89521,-0.43605,-0.46154,-0.13006,-0.25749,0.63518,0.83919,0.63517,0.15059,-0.84419,-0.46156,-0.078947,0.20162,-0.10449,-0.053495,-0.13,-0.053495,0.12508,0.2271,0.25259,0.074044,-0.079026,-0.23203,-0.15545,-0.053378,-0.35948,0.71169,0.89025,-0.002491,-0.92073,-0.86971,-0.53814,0.022986,0.45667,1.1199,0.5332,-0.20656,-0.46161,-0.51264,-0.41056,0.58422,0.58427,-0.12998,-0.46157,-0.23203,-0.027998,0.40558,0.099577,0.20161,-0.48701,0.35451,0.048487,0.17612,0.12509,-0.002436,-0.41052,-0.41058,0.023005,-0.00254,-0.13002,0.45667,0.2526,-0.002436,0.048585,-0.18093,-0.30851,-0.33407,-0.41056,0.022998,0.6096,0.023035,-0.13001,0.30358,0.35466,-0.05339,0.073995,-0.002503,-0.30851,-0.078977,0.074013,-0.43607,-0.53809,0.58417,0.63523,0.38016,-0.48707,-0.64012,-0.15551,-0.078996,-0.56364,0.38012,0.66073,-0.002454,-0.002461,-0.30853,-0.027969,0.15053,0.12502,0.09954,-0.079033,-0.30851,0.074136,0.20164,-0.18095,-0.35954,-0.13001,0.20158,0.25257,-0.25752,-0.18108,0.20153,0.45665,0.38015,0.27815,-0.02792,-0.35955,-0.15549,-0.35957,-0.38509,-0.20654,-0.48714,0.074051,0.6607,0.99235,0.68628,-0.48704,-0.66565,-0.28308,-0.053488,0.27809,0.38009,0.25259,-0.053476,-0.38505,-0.15548,-0.002479,-0.23201,-0.12999,-0.028036,0.17607,0.32916,0.20163,-0.23203,-0.027969,0.20155,0.48217,0.2526,-0.46159,-0.43604,-0.38505,-0.15555,-0.053506,0.15056,0.15058,0.099619,-0.053458,0.2271,0.074057,0.40563,0.43112,-0.002461,-0.35953,-0.10446,-0.3851,-0.69115,-0.51258,0.17607,0.50763,0.48202,0.86461,0.27809,-0.61451,-0.64001,-0.56349,-0.23198,0.25257,-0.053544,0.074013,0.30361,0.66075,0.53318,0.12503,-0.30858,-0.46159,-0.38504,-0.23202,0.048506,-0.0535,0.32912,0.73728,-0.05347,-0.18098,-0.30854,-0.28307,-0.027969,-0.2065,0.023054,0.20157,0.048518,0.023005,-0.28305,0.20157,0.73717,0.48219,-0.33397,-0.69106,-0.38498,0.43109,0.35461,0.12506,-0.28303,-0.69119,-0.002546,0.5076,0.63521,-0.15546,-0.43604,-0.69109,-0.35955,0.35462,0.023035,0.023047,0.40564,0.048536,-0.078996,-0.002418,0.53316,0.3036,0.20155,-0.13002,-0.33405,-0.48705,-0.6145,0.66061,0.1505,-0.15548,0.099619,0.2781,-0.28308,0.07402,0.30361,-0.283,-0.51253,0.023072,0.71173,-0.12999,0.022998,0.023047,-0.25753,-0.38506,-0.25755,0.02301,0.27809,0.45666,0.30361,-0.053464,-0.078972,-0.027956,-0.56362,-0.30861,0.53312,0.48222,-0.15542,-0.436,-0.027956,0.27809,0.023023,-0.5126,-0.66566,-0.33405,0.30361,0.35462,0.15054,-0.13002,0.048573,0.35464,0.27812,0.30361,0.3802,0.48217,-0.51261,-0.84419,-0.84422,0.40565,1.2729,0.17608,-0.23207,-0.4871,-0.89517,-0.61465,0.048487,0.3546,0.22711,0.38016,0.32919,0.27818,-0.25751,-0.64013,0.27808,1.0433,0.45662,0.022986,-0.66569,-0.58908,0.22714,0.12507,-0.23204,-0.28308,-0.1045,0.43118,0.20158,-0.35954,-0.56361,0.17606,0.50767,-0.20647,0.15054,-0.027987,-0.053476,-0.13,0.17607,0.3801,0.099552,-0.002443,-0.74198,0.15055,0.3545,-0.20652,-0.079008,-0.10452,-0.35951,0.074111,0.074124,0.63512,-0.053513,-0.41052,-0.10447,0.35462,-0.28308,-0.43614,0.55866,1.3239,0.1506,-0.2575,-0.99719,-0.79315,-0.002491,-0.18106,-0.002503,0.45662,0.099546,0.15059,0.1251,0.023084,0.38014,0.53315,-0.15552,-0.56358,-0.20647,0.27812,0.30358,0.38011,0.022992,-0.56358,-0.23201,-0.33404,-0.30855,-0.66567,-0.25759,0.73721,0.94134,0.53321,0.8138,-0.13002,-0.74215,-0.76765,-0.58911,0.12503,0.38013,0.35464,0.023035,-0.027998,-0.13002,0.1506,0.048585,0.22708,-0.053488,-0.15548,-0.46157,0.074044,0.55867,0.38015,-0.33404,-0.53812,-0.43608,-0.20655,-0.35958,0.25259,0.96677,0.73723,-0.23202,-0.43607,-0.66562,-0.25754,0.43118,0.25261,-0.1045,-0.053482,-0.002516,-0.28305,-0.23199,0.15058,0.35458,0.55861,0.099595,-0.69108,-0.23201,0.43117,0.17609,-0.51265,-0.48709,-0.18099,0.50767,0.81363,0.04858,-0.12991,-0.56358,-0.76761,-0.23213,0.20147,0.40563,0.07416,0.53325,0.73717,-0.283,-0.28302,-0.25761,-0.58912,-0.20647,0.45669,0.71172,0.3291,-0.4361,-0.48711,-0.41058,-0.05347,0.25261,0.1251,-0.13004,0.15058,0.48216,-0.002454,0.12504,0.15056,0.048567,-0.078972,-0.35957,-0.53811,-0.078941,0.60973,0.3291,0.17602,-0.053513,-0.33407,-0.33406,-0.38505,-0.56365,-0.18098,0.83929,1.1709,0.40565,-0.20653,-0.41057,-0.30856,-0.61464,0.048518,0.48216,0.68621,0.12505,-0.25753,-0.30854,-0.00254,-0.33406,-0.28302,0.074136,0.2782,0.15062,-0.0535,-0.079039,0.022974,-0.30856,-0.2321,0.58418,0.99234,0.048629,-0.58908,-0.20651,-0.53813,-0.46162,-0.48711,-0.027974,0.048573,0.32913,0.40561,0.30358,0.48219,0.60973,-0.35952,-0.48711,-0.74215,-0.43614,0.073995,0.099583,0.35473,0.32922,-0.28299,-0.053513,-0.33411,-0.25759,-0.48703,0.30349,0.58409,0.32913,0.048634,-0.027907,0.53326,0.25269,0.022961,-0.48716,-0.69116,-0.35956,-0.18099,0.048531,0.074062,0.048598,0.40565,0.38013,0.12509,-0.10451,-0.13002,0.15056,0.50768,0.099601,-0.30852,-0.56357,-0.46162,-0.028018,-0.028023,-0.10452,0.30359,0.099546,-0.12996,0.4822,0.73724,0.25267,-0.15548,-0.64014,-0.51259,-0.232,0.12507,-0.15553,-0.027987,-0.053519,0.32907,0.074062,0.25268,0.17612,0.074051,0.20158,-0.18105,-0.41061,0.048525,0.048573,-0.33401,0.074062,0.25261,-0.079014,-0.33406,-0.002479,-0.002479,0.099559,0.27808,0.43115,0.25262,-0.02795,-0.28302,-0.28304,-0.38503,-0.027987,0.8646,0.43112,-0.053451,-0.15545,-0.35954,-0.079008,-0.12999,-0.12999,-0.002467,0.27814,0.25263,0.04858,-0.18103,-0.51256,-0.20655,-0.10455,-0.027993,0.58421,0.96683,0.68619,0.099479,-0.66566,-0.74218,-0.76764,-0.48702,0.074124,0.38016,0.35458,0.15056,-0.079021,0.074051,0.12509,0.25259,0.45665,0.25267,-0.25751,-0.56359,-0.46161,-0.053519,0.099528,0.30354,0.17604,0.25262,0.04858,-0.51254,-0.23198,0.43124,0.5332,-0.15551,-0.69114,-0.05358,0.176,0.27811,0.30358,0.048585,-0.12999,-0.33401,-0.15546,0.35465,0.35464,0.17602,0.048487,-0.027987,-0.079002,-0.15548,-0.12995,-0.002418,0.15059,-0.002485,0.07402,0.048494,0.048512,-0.079002,-0.12999,0.15062,0.50766,0.12507,0.20161,-0.12994,-0.74213,-0.46162,-0.3851,-0.25756,0.22708,0.63524,0.3037,0.6096,-0.053495,-0.4616,-0.38507,0.099534,0.074051,0.023059,0.04861,0.17612,0.25268,-0.078953,-0.41062,-0.61473,0.43107,0.73723,0.32911,0.48209,-0.38507,-0.69108,-0.33398,-0.43609,-0.23209,0.048543,0.40566,-0.15551,-0.25753,0.27809,0.38013,0.12512,0.22717,0.048561,-0.23206,-0.10453,-0.53814,-0.28304,0.35465,1.0433,0.27805,-0.053549,-0.078977,-0.3595,-0.38502,-0.23201,-0.28308,-0.23203,-0.18102,-0.15548,0.22712,0.73723,0.6097,0.2526,0.3546,-0.48711,-0.51268,-0.35962,-0.20649,0.12511,0.074106,0.099608,-0.41057,-0.23202,0.40564,0.73725,0.58419,-0.10455,-0.48713,-0.4871,-0.02795,-0.20649,0.023054,0.074111,0.38011,-0.13005,-0.053531,0.15057,-0.15551,0.38016,0.38011,0.20157,-0.51254,-0.35947,-0.053446,-0.2065,0.43113,0.25259,-0.23208,-1.1247,-0.25757,0.50757,0.91583,0.1506,-0.002472,-0.027987,-0.0535,-0.25754,-0.43607,0.15057,0.76274,0.12511,-0.078966,-0.23198,-0.41055,-0.23209,-0.10458,-0.18101,0.074062,0.17609,0.17602,-0.078959,0.15057,0.27815,-0.2065,-0.002467,0.50766,0.20158,-0.58912,-0.51263,-0.41054,0.3802,0.94124,0.53313,-0.35957,-0.64015,-0.46159,-0.25755,0.099564,0.43113,0.38016,0.45664,0.1251,-0.41055,0.22717,0.32915,-0.23206,-0.33409,-0.48711,-0.46161,-0.28305,0.25262,0.30363,-0.0535,-0.02798,0.40565,0.38014,0.43113,0.30361,-0.58912,-0.53811,-0.25751,0.023041,0.074062,-0.053451,0.12504,0.15056,0.048506,-0.35954,0.35466,0.71181,-0.027931,-0.15551,-0.15556,-0.079026,-0.25753,-0.027987,0.22707,-0.027974,-0.38506,-0.10445,0.22717,0.40569,-0.027962,-0.15549,-0.10449,-0.35962,-0.3086,0.25256,0.78818,0.45663,-0.35954,-0.30851,-0.41052,-0.38499,-0.81855,0.45662,1.3237,0.55865,-0.53807,-0.181,-0.13001,-0.1045,-0.078972,-0.23201,-0.23205,-0.053495,0.27812,0.78826,0.6097,-0.30855,-0.5636,-0.30858,0.023029,0.15059,0.099577,0.25259,0.25262,-0.38506,-0.38506,-0.002454,0.22707,0.38011,-0.002503,-0.25756,-0.2065,-0.10447,0.12509,0.22711,0.15057,0.12505,-0.10449,-0.053488,-0.12996,-0.35951,0.48206,0.55864,-0.20654,-0.41055,-0.23202,-0.30855,-0.15551,0.15063,0.45668,0.68629,0.15059,-0.51267,-0.46167,-0.33408,0.023035,0.099552,-0.07899,-0.027938,0.83927,0.58419,-0.079002,-0.078966,-0.20651,-0.30855,-0.15548,0.35465,0.2271,-0.18101,-0.13005,-0.46162,-0.43612,0.27808,0.48215,0.27814,-0.12998,0.12509,-0.002454,0.12509,-0.25751,-0.15549,0.074038,-0.23207,0.074013,0.17604,-0.25756,-0.002472,0.27816,0.58427,0.048585,-0.002497,0.02301,-0.028023,-0.33404,-0.56361,-0.46159,0.074057,0.45667,0.68622,0.43118,-0.15557,-0.23209,0.22708,0.2271,-0.30851,0.17607,0.32912,-0.48711,-0.69112,-0.35957,-0.51259,-0.12998,0.22711,0.35456,0.45664,0.40568,-0.053451,-0.13001,0.12509,0.22717,0.023084,-0.28308,-0.25761,0.07402,0.35462,-0.283,-0.28305,0.048531,0.12508,0.22708,-0.20653,-0.35946,1.1963,0.12507,-0.56354,-0.51255,-0.66567,-0.48714,0.2781,0.32915,0.3036,-0.05347,0.17603,0.22705,0.074044,-0.28299,-0.56358,-0.6401,0.48222,1.528,0.66072,-0.46163,-0.2066,-0.56368,-0.71667,-0.41057,0.27813,0.074075,0.12507,0.048525,-0.43609,-0.283,0.32915,0.17612,0.074081,0.20154,0.45666,0.48222,0.32918,-0.2575,-0.76771,-0.56372,-0.48717,-0.3596,0.048567,0.30366,0.48218,-0.15546,-0.30849,0.17612,0.38012,0.20153,0.15056,-0.002479,-0.94615,-0.25761,0.45655,0.099588,-0.05339,0.25269,0.3547,-0.33403,0.15049,0.073965,-0.61467,-0.64015,-0.43607,0.12508,1.1964,1.3239,-0.10448,-0.41061,-0.74217,-0.84419,-0.33406,0.17604,0.63517,0.35465,0.30358,-0.15548,-0.56355,-0.30851,0.15059,0.73723,-0.002503,-0.41058,0.30364,0.15058,-0.35956,-0.027962,0.38016,-0.028018,-0.69116,-0.46164,0.4821,0.58411,-0.10448,-0.2575,-0.41051,0.12514,0.17617,0.17611,-0.15551,-0.13002,0.09951,0.2015,0.38011,0.55867,0.38013,-0.48711,-0.76767,-0.4361,-0.18099,0.58419,0.53321,0.099577,-0.38503,-0.48708,-0.46156,-0.002491,0.38008,0.099515,0.048506,0.25259,0.22713,0.43121,0.58423,-0.12998,-0.58916,-0.48711,-0.23202,-0.23202,0.25257,0.125,-0.002461,0.35465,0.20157,-0.13004,-0.28295,-0.002338,-0.41052,-0.028042,0.20151,0.099552,0.22712,-0.13002,0.15051,0.20157,0.22713,-0.51256,-0.538,0.50765,1.4513,-0.078996,-0.69111,-0.81864,0.20155,-0.28307,-0.15551,-0.46155,-0.18101,0.4056,0.76277,0.60968,0.17598,-0.18109,-0.43601,0.25263,0.048555,-0.61457,-0.078923,0.023084,-0.078977,-0.28308,-0.20656,0.48209,0.17601,0.3036,0.83931,0.2527,-0.92074,-0.74216,0.22709,0.50762,-0.053525,-0.48708,-0.28303,-0.46156,-0.33401,-0.15543,0.76267,0.83925,0.38021,-0.20655,-0.25759,-0.18106,-0.053464,-0.18098,0.04861,0.048585,-0.43609,-0.10452,0.20154,0.3801,0.40568,-0.25751,-0.25751,-0.1045,0.0485,-0.41057,-0.74213,-0.13,0.15059,0.63522,0.15057,-0.33407,-0.027974,0.27811,0.27814,0.38015,-0.002485,-0.56363,-0.28305,0.099577,0.20158,0.023023,-0.002472,0.15055,0.32913,-0.46144,0.15057,0.073922,-0.30859,-0.43601,-0.002418,0.5587,-0.1045,-0.64013,-0.181,0.40564,0.20156,0.074038,0.15056,0.12502,0.02301,-0.38504,0.45661,-0.079008,-0.12993,0.074136,-0.053415,-0.1045,0.25256,-0.079021,-0.4361,-0.15551,0.40565,0.30361,0.074038,-0.12998,-0.18101,-0.078996,-0.12999,-0.181,-0.23202,-0.13,0.099546,0.25262,0.38018,0.55866,0.2271,0.023035,-0.1555,-0.027962,-0.48713,-0.00254,0.12504,0.27809,-0.078947,-0.18097,-0.078984,-0.079002,-0.28299,-0.02792,0.099588,0.45671,0.048598,-0.181,-0.33408,-0.2321,0.12502,0.58417,0.15057,-0.61467,-0.35961,0.074026,0.4312,0.099613,-0.18097,-0.33401,-0.053446,-0.079008,-0.35959,-0.13004,0.63517,0.7117,0.02301,-0.38502,0.20169,0.27813,-0.30856,-0.41062,-0.66565,-0.3851,0.2526,0.40571,0.55867,0.2016,-0.23199,-0.30854,-0.28303,-0.13,0.048512,0.27806,0.048536,-0.1045,-0.43604,0.17612,0.40566,0.20162,0.15054,-0.33409,-0.2576,0.22704,0.89019,-0.078996,-0.2575,-0.25747,-0.48701,-0.33402,-0.81873,-0.25761,0.63521,1.4515,1.0179,-0.64013,-0.89523,-0.41061,-0.053482,-0.181,-0.15549,0.048555,0.099577,0.71162,0.55859,0.15054,-0.15547,-0.078928,-0.20646,-0.41051,-0.35956,-0.002479,0.63519,0.68623,-0.10449,-0.64017,-0.64014,-0.61467,0.17604,0.48213,0.32912,0.27813,-0.15545,-0.18098,0.074093,0.023041,0.02301,0.074013,-0.18103,-0.027969,-0.18102,-0.13,0.25254,0.20156,0.22712,0.35465,0.22716,-0.027931,-0.18103,-0.35957,-0.28308,-0.35959,-0.30856,0.02301,0.53319,0.99237,0.15066,-0.43609,-0.48712,-0.053513,-0.078996,-0.30858,0.048536,0.12504,0.074038,-0.053451,0.48218,0.55869,-0.05347,-0.30848,-0.2575,-0.41059,-0.18105,-0.2065,-0.078972,0.25255,0.25256,0.074081,0.22713,0.048555,-0.28308,-0.002491,0.45669,0.09957,-0.41055,-0.5891,-0.46155,-0.20649,0.60969,0.48213,0.12502,0.22706,0.15054,-0.25756,-0.15552,-0.15549,-0.41052,-0.2065,0.15061,0.50767,0.2781,0.17606,-0.35948,-0.38508,-0.18106,0.30363,0.20163,0.074062,0.38016,-0.53807,-0.38511,0.17597,0.12503,-0.10449,-0.23204,-0.25754,0.20164,0.68625,0.40569,0.22717,-0.41053,-0.51266,-0.23209,0.43115,0.074044,-0.20653,-0.43609,-0.18103,0.023023,-0.053458,-0.15548,-0.078959,0.1251,0.45664,0.3546,0.074033,0.04858,-0.002467,-0.23199,-0.232,-0.027993,-0.13005,0.048561,0.17612,-0.181,-0.28303,-0.053476,-0.12998,-0.002485,-0.18101,-0.13001,0.27811,0.023023,-0.30859,-0.15555,0.58424,0.91582,0.20159,-0.33404,-0.46157,-0.078984,0.023047,-0.028005,-0.079008,-0.10453,0.048561,-0.10445,-0.283,0.074124,0.22715,0.38014,0.048463,-0.3851,-0.35961,-0.15552,0.074038,0.66073,0.83925,0.074062,-0.69105,-0.61465,-0.33415,0.099485,0.25263,0.1251,0.58422,0.71176,-0.33407,-0.74216,-0.64012,-0.027956,0.27808,-0.028054,0.20152,0.2271,0.63526,0.58422,0.023041,-0.18105,-0.53808,-0.48706,-0.41054,-0.18101,0.048567,0.048536,0.17604,0.32909,0.22709,0.12508,-0.23202,0.023047,0.43117,0.1761,-0.58911,-0.79319,-0.38509,0.074044,-0.02798,0.048531,0.023054,0.20159,0.45666,0.074069,-0.283,-0.181,0.20159,0.45667,0.074038,-0.12998,-0.23203,-0.56362,-0.13001,0.48216,0.27805,0.023023,-0.053476,-0.2065,-0.002479,0.023054,-0.25752,-0.89519,-0.35956,0.81377,1.6555,1.579,0.2781,-1.3289,-1.2779,-0.94628,-0.79321,-0.41058,-0.027974,0.63523,0.9923,0.53318,-0.053446,0.099564,-0.10447,0.1506,0.099583,-0.20653,-0.25754,-0.56362,-0.053476,0.86474,0.9413,0.43117,-1.1503,-1.2013,-0.46161,0.17607,0.22711,-0.10447,-0.18102,-0.002479,0.30363,-0.053458,0.023029,0.15053,0.099564,0.17613,0.43115,0.81366,0.12506,-0.76759,-0.84408,-0.71654,-0.51254,0.023035,0.27806,0.17601,-0.43609,0.91563,0.55858,0.099577,0.048622,0.20162,0.30361,-0.25754,-0.56358,-0.30849,0.1251,-0.41057,-0.20649,0.66069,0.3036,-0.15552,-0.10449,-0.33406,-0.20655,-0.13001,-0.053488,0.53321,0.63521,0.2526,-0.28305,-0.43609,-0.20651,0.20163,0.30361,-0.33405,-0.4871,-0.10452,0.60969,0.35461,-0.23202,-0.38506,0.023041,0.27815,0.1761,-0.28305,-0.30858,-0.053488,0.22712,0.58422,-0.20653,-0.20652,-0.15548,-0.027969,-0.078972,-0.46159,-0.15554,0.12504,0.32914,0.45666,0.099528,-0.1555,0.09957,0.099583,0.12511,-0.10447,-0.18099,-0.25756,0.15051,-0.10456,-0.35956,0.35465,0.63526,0.40571,-0.15551,-0.35962,-0.56366,-0.41057,-0.053464,0.2526,0.45667,0.099528,-0.002503,-0.35954,-0.078941,-0.30852,-0.053446,0.48218,0.48217,0.25259,-0.25756,-0.35957,-0.027969,0.32917,-0.002461,-0.002472,0.17603,-0.33409,-0.38508,-0.10452,0.27815,0.3037,-0.053421,-0.078953,0.048531,-0.15553,0.17609,0.53316,0.15057,-0.3851,-0.13005,-0.20658,-0.18108,0.099552,0.25264,-0.078928,0.099583,0.12507,0.023029,-0.13004,-0.20652,0.22712,0.50768,0.43117,-0.027998,0.048487,-0.25762,-0.35961,-0.078996,-0.25746,-0.12991,-0.078923,-0.33404,0.12506,0.55871,0.68621,0.15049,-0.56365,-0.18101,0.22709,0.12509,0.32911,0.074013,-0.35959,-0.46157,-0.053451,-0.38502,-0.23202,-0.078977,0.12507,0.15059,0.048555,0.048555,0.099601,0.40566,0.48215,0.0485,-0.10452,-0.13004,-0.20654,-0.10453,-0.30855,-0.35953,0.22713,0.68626,0.40571,-0.027974,-0.20653,-0.46161,-0.58915,-0.58916,-0.053562,0.12502,0.27818,0.86485,0.25265,-0.053464,0.17604,-0.053537,-0.46164,-0.15549,-0.078928,0.15065,0.074081,-0.18097,-0.25753,-0.10453,-0.079008,0.25259,0.27808,0.023017,0.048518,-0.02798,-0.35957,0.048561,0.86477,0.83931,-0.002454,-0.48713,-0.58915,-0.51257,-0.18098,-0.43602,-0.10446,0.17611,0.35462,0.25257,0.074002,-0.002521,-0.079045,-0.23203,-0.15547,-0.053421,0.099595,0.27812,0.38011,-0.028018,-0.56358,0.048463,0.17604,0.099577,0.30366,0.074106,-0.20647,-0.30847,-0.18098,-0.13,-0.20655,0.30356,0.3546,-0.027993,-0.15551,-0.18101,-0.20651,0.15059,0.35464,0.17606,-0.002461,0.074044,-0.23201,0.074051,0.20158,-0.10449,-0.33405,-0.28303,-0.15552,0.023041,-0.027956,-0.002491,-0.053495,0.2016,0.25257,0.22707,0.2526,0.3547,-0.002387,0.048543,-0.64014,-0.18112,-0.33415,-0.13005,-0.027944,0.074075,-0.20649,-0.28302,0.099619,1.2219,1.5025,0.32908,-0.92077,-0.81874,-0.25753,0.099583,-0.41054,-0.41054,-0.28303,-0.028018,0.25256,0.71168,0.60968,0.45665,-0.15548,-0.41055,-0.38508,-0.12996,0.25265,0.20159,-0.053482,-0.53812,-0.23201,0.27811,0.40568,0.66075,0.15059,-0.053476,-0.15548,-0.56366,-0.61467,-0.71671,-0.13001,0.40566,0.1761,0.25262,0.17611,0.43117,0.38013,-0.053506,-0.13003,-0.13001,-0.002479,0.023023,-0.20652,-0.1045,0.023103,0.15063,0.023096,-0.053482,-0.25754,-0.20656,-0.053525,-0.00251,-0.053488,0.12507,0.27814,0.40571,0.4312,-0.027974,-0.33409,-0.28308,-0.20655,-0.053488,-0.15551,-0.078977,0.32912,-0.02792,0.15059,0.48214,0.27808,-0.053476,0.074062,0.15059,-0.30853,-0.43608,-0.28306,-0.25751,-0.10448,-0.027987,0.22707,0.32912,0.45664,-0.18101,0.023047,0.15059,0.023054,-0.20652,-0.20653,-0.15555,-0.053513,0.30366,0.43119,0.17609,-0.23202,-0.4616,-0.41057,-0.38505
-0.12999,-0.002472,0.048525,-0.053476,-0.053482,-0.002461,0.074051,0.074069,0.12507,0.023047,-0.002461,-0.027969,-0.002472,-0.18101,-0.002479,-0.053488,0.023041,0.12508,0.12508,-0.23197,-0.078996,0.09951,-0.1045,-0.12999,0.023023,0.12504,0.023041,-0.053451,-0.053458,-0.10447,-0.18099,0.023041,0.12504,0.099546,0.074033,-0.002479,0.099552,0.09957,0.15057,0.074051,-0.078984,-0.1555,-0.181,-0.30851,-0.12998,0.30355,0.12506,-0.053451,-0.12996,-0.027956,0.099546,0.12505,0.048531,-0.078996,-0.053488,-0.002467,0.048555,-0.002448,-0.002461,-0.002461,-0.05347,-0.02798,-0.027974,-0.02798,-0.12999,0.023029,0.12505,0.27811,-0.05347,-0.35953,-0.078959,0.30358,0.074044,0.023035,-0.18101,-0.002461,0.12505,0.15056,0.074069,-0.053464,-0.12996,-0.25753,-0.13001,-0.10452,0.074038,0.3291,0.25259,-0.002467,0.023035,-0.02795,0.023047,0.02301,-0.079002,-0.18103,0.099564,0.17609,0.20159,0.099588,0.074081,-0.3085,0.074013,0.074013,-0.28302,-0.18101,-0.10449,0.023047,0.12505,0.17607,0.099559,0.023035,-0.027987,0.048536,0.023041,0.048549,0.099546,0.15056,0.048555,0.09957,-0.02795,-0.25753,-0.28302,-0.027969,-0.10449,-0.12999,0.12505,0.074051,0.27808,0.30361,0.023054,-0.18098,-0.25749,-0.20652,-0.079008,0.099552,0.12505,0.17606,-0.12998,0.20156,0.15056,-0.053458,-0.15547,-0.2065,-0.25756,0.023029,0.2271,0.048536,-0.15551,0.048567,0.099583,-0.13001,-0.13002,0.20159,0.17606,-0.13001,-0.002454,0.17607,0.12508,-0.002461,-0.02795,-0.30853,-0.35957,0.099564,-0.05347,0.023059,0.17606,0.048543,0.07402,0.15056,0.30359,-0.027969,-0.58903,0.12505,0.32907,-0.053476,-0.33406,-0.46152,0.099595,0.15053,0.30359,-0.43607,-0.38504,0.58421,0.48222,0.099521,-0.079008,0.17603,-0.028011,-0.053495,-0.33404,-0.12995,-0.027956,-0.10447,0.17614,-0.25748,0.048531,0.27806,-0.23204,-0.23199,-0.43595,0.12511,0.40561,0.023023,-0.25757,-0.76766,-0.4106,-0.18103,0.91565,1.1197,-0.12993,-0.41046,-0.10444,0.074093,-0.002472,-0.25749,-0.61457,0.048494,0.074002,0.30354,-0.23197,0.38012,0.35465,-0.002461,0.048543,-0.58911,-0.3341,-0.69111,0.60961,0.35458,0.15056,-0.41058,-1.3541,0.15065,2.038,0.78831,-0.69091,-0.20646,-0.64015,-0.20655,0.12499,0.66069,0.50757,-0.1556,-0.079002,-0.56345,0.40559,0.07394,-0.43616,-0.84419,-0.53795,0.048683,-0.002423,0.17605,0.40568,0.63515,1.0687,0.6096,-0.89513,-0.6146,-1.0739,-0.89518,0.2527,0.35467,1.3239,0.81367,0.3035,-0.33415,-1.2523,-0.86964,0.58428,1.3494,0.3036,-0.51267,-1.2777,-0.25757,0.37989,-0.3851,-0.18093,-0.53795,0.15064,0.048543,-0.10451,1.0688,0.78826,-0.2065,-0.028018,-0.10449,0.25253,-0.10456,-0.64017,0.17597,-0.15557,-0.12998,-0.078953,-0.002436,0.68632,0.074179,-0.58905,0.17595,-0.38511,0.71179,0.91584,-0.23203,-1.3033,-1.1503,0.22706,1.5535,1.3239,-0.10455,-1.0483,-0.79315,-0.46156,0.048585,0.22708,0.048561,-0.002436,0.43107,0.27803,0.38011,0.2526,-0.078923,-0.81855,-0.69107,-0.12995,0.25265,-0.028018,0.3545,0.38007,-0.12996,-0.76761,-0.66566,0.83925,0.91572,0.12497,0.09951,0.38013,-0.10443,-0.92063,-0.89515,-0.66553,0.22708,0.63501,0.17606,-0.48705,-0.15539,0.3036,0.12508,1.1707,0.71163,0.048536,-0.46154,-0.79312,-1.0482,-0.35959,0.074002,0.35465,0.6096,0.20159,0.1506,0.12512,-0.25745,0.023072,-0.51262,-0.9207,-0.46164,0.30351,1.3748,0.58417,-0.48704,-0.66555,-0.078935,0.15057,-0.2065,-0.18101,0.1251,0.15056,0.176,0.35459,0.60972,0.09957,-0.61457,-0.81866,-0.56364,-0.027956,-0.078972,0.2527,1.4258,-0.15556,-0.46161,0.78827,-0.2064,-0.69121,-0.74236,-0.79336,-0.35961,0.38024,0.58425,0.099577,0.023029,-0.18103,0.20164,1.0178,0.78822,-0.61457,-0.38511,-0.23209,-0.35957,0.58421,0.78823,-0.078972,-0.35951,-0.334,-0.38506,-0.23209,-0.30862,-0.053519,0.048518,1.2984,0.32918,-0.43606,-0.30858,-0.56361,-0.48699,1.1963,0.53309,-0.3341,-0.15548,0.023029,-0.078977,-0.48708,-0.66561,0.023041,0.35462,0.48221,-0.053427,0.048555,1.1198,1.0688,-0.43611,-1.2014,-1.1248,0.20157,0.45667,-0.48703,-0.13,-0.079039,-0.25753,-0.053439,0.074044,0.25265,0.50767,0.2781,0.048616,0.68619,-0.15554,-0.18106,-0.30856,-0.23208,-0.079045,-0.028011,-0.20649,0.60978,0.71176,-0.30855,-0.35959,-0.10453,0.099559,0.12509,0.71179,0.5078,0.07391,-0.94627,-0.89518,-0.33409,-0.18101,0.53316,-0.027962,0.22715,0.66077,-0.33401,-0.33407,0.27808,0.074038,0.02301,-0.13001,-0.10449,0.12504,-0.18099,0.30361,0.76269,-0.30849,-0.97167,-0.71666,-0.23204,0.17609,0.55869,1.6554,1.0178,-0.51258,-0.15732,0.072198,-0.84423,-0.89525,-0.38508,0.35462,0.38009,-0.25755,-0.027944,0.27814,0.099546,-0.53804,0.83917,1.0178,0.38006,-0.33408,-0.89508,-0.28295,-0.027895,0.20164,-0.38506,-0.97179,-0.61473,-0.15552,0.63523,0.53318,-0.18109,-0.35961,1.324,0.66083,-0.18106,-0.74218,-0.48706,-0.2575,-0.053451,-0.43607,-0.51257,-0.18101,0.96676,1.1963,-0.002436,-0.61457,-0.20647,0.20155,0.25251,-0.28309,-0.053476,0.81384,0.27818,-0.51258,-0.74218,-0.74221,-1.0227,-0.002565,0.60962,0.60973,0.40566,0.1506,0.17607,0.53314,0.30362,-0.002436,-0.1299,-0.027913,0.073989,-0.25754,-0.23208,-0.38508,-0.64011,-0.23201,0.40563,1.2984,0.48217,-0.00254,-0.92068,-0.38505,0.38014,-0.002479,-0.41056,-0.053506,-0.20656,-0.18099,-0.002461,0.17605,0.25259,0.32915,-0.35953,-0.028005,0.50763,0.30364,0.25259,0.22709,-0.00243,0.15057,-0.66562,-0.487,-0.76761,-0.30862,0.32912,0.73735,0.45654,0.15045,-0.2065,-0.12993,-0.35956,-0.25753,-0.58914,-0.15556,0.43113,1.0178,0.81379,-0.3085,-0.69113,-0.56359,0.048531,-0.002467,0.048506,-0.3086,-0.18101,0.22713,0.4567,0.63516,0.83918,0.22707,-0.89516,-0.97164,-0.53805,-0.002454,-0.028011,-0.027969,0.40564,0.048585,-0.002521,0.66064,0.63521,0.099552,-0.41056,-0.46155,-0.43611,-0.33404,-0.18097,-0.48695,0.074002,0.60962,0.30361,-0.028018,-0.078977,1.1198,1.2219,-0.56353,-0.89512,-1.1247,-1.0992,-0.97172,-0.053513,0.96673,1.3239,0.60968,0.074062,-0.28305,-0.35957,-0.28305,-0.078996,-0.25756,-0.002485,0.023054,0.048543,0.1506,0.35468,0.27814,0.099564,-0.079045,-0.20653,-0.35956,-0.25753,0.023023,-0.28307,-0.38506,0.50769,0.71179,0.91575,0.9922,0.12509,-0.41052,-1.0227,-1.2522,-0.89517,-0.51263,0.20151,0.35458,0.63519,0.27815,0.6607,0.55862,0.048525,-0.053433,0.099601,-0.15553,-0.38505,-0.18097,0.099608,-0.35955,-0.48713,-0.028011,0.50767,0.50766,0.099515,-1.2012,-0.053555,0.53309,0.30363,-0.23197,-0.28298,-0.15546,0.35467,0.35459,-0.25754,-0.53809,-0.25753,0.20164,0.45668,0.27809,0.12499,-0.13004,-0.25755,-0.25751,-0.23201,-0.10452,-0.13002,0.048573,0.35472,0.30365,0.45659,0.27805,-0.23202,-0.18097,-0.35953,-0.10453,-0.20652,0.048549,0.074051,-0.05347,-0.30853,-0.38503,-0.30854,0.023041,0.55866,0.48211,0.17605,-0.15551,0.09957,0.89026,0.25272,0.17607,0.15051,-0.79311,-0.69113,-0.43611,-0.5636,-0.48708,-0.33404,0.20157,0.91579,0.73726,0.6607,0.35457,-0.079033,-0.25754,-0.38508,-0.41055,-0.35952,-0.20649,0.023059,-0.027987,-0.02798,0.2271,0.6608,0.83927,0.20153,-0.48711,-0.7422,-0.5891,0.38018,0.40569,-0.027956,-0.002472,-0.13001,-0.92078,-0.64013,0.45667,0.96679,0.1251,-0.23199,0.074069,-0.12993,0.83908,0.15051,-0.74206,-0.487,-0.027895,0.048573,-0.12996,0.099503,-0.079051,-0.51262,-0.027938,0.73731,0.96678,-0.181,-0.5381,-0.20657,-0.33409,-0.38506,-0.58914,-0.23205,0.48215,0.81377,0.63522,0.25266,-0.38504,-0.48707,0.099521,0.53312,0.17606,-0.23201,-0.2575,-0.23199,0.099564,0.20156,-0.053519,-0.38506,-0.41061,0.074038,0.91584,0.6098,0.22705,-0.30863,-0.69115,-0.71663,-0.53813,0.25259,0.2272,1.1198,0.63514,-0.41055,-0.7676,-0.56356,-0.74219,-0.0535,1.2729,1.0689,0.27815,-0.61459,-0.43612,-0.25761,-0.028011,-0.053513,-0.35959,-0.30854,0.15062,0.17612,0.22713,0.71178,0.83931,-0.33401,-0.43613,-0.3596,-0.56362,0.099564,-0.15553,-0.18105,-0.13005,-0.10448,0.20162,0.27812,-0.23199,0.15059,0.32917,-0.12997,-0.28309,-0.28307,-0.18103,0.074075,-0.053464,-0.33407,0.12505,0.17607,0.048549,0.45673,0.68639,0.099613,0.60943,-0.46169,-0.74215,-0.15548,0.22711,-0.002418,-0.078928,-0.43606,-0.35957,-0.20654,-0.079021,0.30362,0.60969,0.32908,-0.002497,0.32914,-0.027931,0.099588,-0.053495,-0.41059,-0.51259,-0.10447,0.27816,0.15059,-0.15553,-0.053525,-0.28306,-0.027931,0.45671,0.43115,-0.25751,0.023017,-0.002516,-0.43611,-0.028042,0.12499,-0.1555,-0.18095,-0.20647,0.099613,0.66078,0.40569,0.048629,0.35461,0.20158,-0.35965,-0.74225,-0.53816,0.09954,0.048622,0.53315,0.89022,0.22718,-0.92061,-1.4562,-0.002565,0.89016,0.48215,-0.43604,0.048585,0.25265,-0.10446,-0.30851,-0.25753,-0.15553,-0.10453,0.22707,0.38017,0.2016,-0.10452,-0.33405,-0.23199,-0.10447,-0.07899,0.17607,0.074057,0.12509,0.048543,0.023065,-0.28306,-0.4871,-0.76766,-0.28305,0.66075,1.5789,0.35464,-0.15555,-0.53818,-0.61465,-0.30853,-0.56362,-0.25754,0.25257,0.074038,-0.25748,0.27816,0.7883,-0.28285,0.15059,0.12494,-0.2321,-0.66564,-0.6146,-0.20652,0.53318,0.58417,-0.027993,-0.33405,-0.20652,0.099583,-0.5891,-0.02795,0.8393,0.45669,-0.027956,0.22698,-0.23211,-0.38513,-0.30856,-0.18098,-0.53796,0.2527,0.074093,0.25258,0.20158,0.73718,-0.079033,-0.23208,-0.027987,-0.35951,-0.18094,0.023065,-0.18101,0.22702,-0.028005,-0.10452,0.25263,0.6352,0.66071,-0.23201,-0.15546,-0.43604,-0.4361,-0.41058,-0.10449,-0.078904,0.81359,0.048451,-0.43605,0.27815,0.3802,-0.20651,-0.15545,-0.23199,0.30363,0.17607,0.074008,-0.33404,-0.18109,-0.053513,0.22711,0.50768,-0.23201,-0.61462,-0.13,-0.053458,0.074087,0.58421,0.73725,0.074008,-0.38511,-0.71663,-0.48711,-0.027993,0.15062,-0.20646,0.176,0.76264,0.71169,-0.35948,-1.0226,-0.12998,0.4056,0.55866,0.12513,-0.2065,-0.30858,-0.13005,-0.4361,-0.28304,0.099583,-0.25749,0.074075,0.38013,-0.07891,0.45652,0.38006,-0.078917,-0.20644,-0.078953,-0.053476,-0.10451,-0.25753,-0.028011,-0.12997,-0.027944,-0.15552,-0.38505,0.023065,0.1506,0.50765,0.45661,0.023029,-0.02798,-0.25753,-0.13002,-0.18105,0.22704,0.66062,0.53317,-0.002412,-0.7166,-0.53801,0.099632,-0.002412,-0.12998,-0.30863,-0.028072,0.30358,0.099588,-0.23204,-0.00243,0.9413,0.25255,-0.35956,-0.33408,0.15059,-0.10444,0.048598,-0.25744,0.30354,-0.053537,-0.6656,-0.30853,-0.181,0.22705,0.12505,-0.10447,-0.002418,0.58426,0.60972,-0.25757,-0.43607,-0.46161,-0.41061,-0.18106,0.099521,0.17611,0.48219,0.73714,-0.13003,-0.20651,0.074124,-0.00243,-0.46153,-0.23196,-0.10447,0.15054,0.45658,-0.053433,-0.53813,-0.53812,-0.027969,0.20158,0.38012,0.27805,0.048512,-0.41054,-0.25748,0.15064,0.63523,0.78825,0.023059,-0.4871,-0.28313,-0.20662,0.023017,0.048567,-0.078996,-0.41058,-0.33402,-0.12997,0.2271,0.99238,0.6608,0.38016,-0.13002,-0.7677,-0.2322,-0.2321,-0.23199,0.12515,0.63521,0.32909,-0.35959,-0.41054,-0.13001,-0.10452,-0.053464,0.38015,-0.002394,-0.28298,-0.15548,0.22707,0.43112,0.048451,0.073989,0.55866,0.40566,-0.38508,-0.66562,-0.74199,1.2728,0.20155,-0.74212,-0.61456,-0.33407,-0.002534,0.099577,0.63517,0.58419,0.023047,-0.33405,0.099521,-0.10453,0.074026,0.023059,0.25261,-0.002467,0.099601,0.048653,-0.12994,-0.35952,-0.4361,-0.18107,0.048487,0.63512,0.43112,-0.1045,-0.30854,0.12507,0.04858,-0.053427,-0.10444,0.68622,0.48209,-1.1247,-0.46163,0.48205,0.48214,-0.027858,-0.2574,-0.30846,-0.15551,0.073953,0.022961,0.048494,0.048518,0.023059,0.12511,-0.027907,-0.053402,-0.10449,0.278,-0.20655,0.48206,0.15053,-0.18094,-0.1554,0.43122,0.17616,-0.38508,-0.30861,0.0485,0.25259,0.30363,-0.053525,-0.28308,-0.33401,-0.02798,-0.079026,-0.1045,-0.078966,0.17612,0.17615,-0.23197,0.048531,-0.002528,0.023005,0.60967,0.38018,0.17622,-0.28294,-0.56362,-0.51264,-0.25758,-0.33409,-0.028047,0.60968,0.30358,-0.027993,-0.20649,-0.002387,0.83927,1.1963,-0.38503,-0.86965,-0.56356,-0.053495,-0.20653,-0.41055,0.27805,0.27807,-0.027969,0.074062,0.30361,0.22708,0.48211,-0.002454,-0.18098,0.048604,-0.1044,-0.48708,-0.4106,-0.28306,-0.027993,-0.33409,0.43108,0.63513,0.43118,-0.25745,-0.51253,-0.3086,-0.13009,-0.15549,0.73731,0.96688,0.12514,-0.56361,-0.51263,-0.20658,0.074026,0.12508,-0.05347,0.099577,-0.002454,0.12507,-0.002467,0.099588,0.12508,-0.18096,-0.69101,0.68613,1.1197,0.074062,-0.74211,-0.4616,-0.33407,-0.51259,-0.35956,-0.30854,-0.18097,0.73717,1.1963,0.38015,-0.25751,-0.4106,-0.35959,0.2016,0.20161,0.27813,0.50769,-0.02792,-0.28302,-0.20652,-0.002528,-0.20655,-0.33402,0.099601,0.32915,0.074093,-0.002436,0.074087,0.40562,-0.10453,-0.28303,-0.028005,-0.18106,0.099521,-0.027956,-0.053451,0.15063,0.50768,0.40561,0.27809,-0.027913,-0.46158,-0.64015,-0.61465,-0.13007,-0.10455,-0.053446,0.15064,0.35467,0.074093,0.074013,0.0485,0.53319,0.78828,0.32912,-0.33407,-0.61465,-0.46162,-0.46164,-0.18106,0.048536,0.83923,0.45672,-0.027895,0.023084,-0.30855,-0.28305,-0.079033,-0.53801,0.20152,0.22702,-0.053482,-0.002467,-0.25749,0.15057,0.60967,0.45672,-0.35948,-0.23202,0.27811,0.074013,-0.20659,-0.18104,-0.25753,-0.84415,-0.28303,0.50771,0.50772,0.94134,0.15059,-0.46164,-0.64022,-0.5636,0.76268,0.96669,0.3036,-0.8441,-0.81857,-0.41058,-0.10451,-0.15552,0.17611,0.35468,0.4312,0.32908,-0.18103,-0.20652,-0.15548,-0.002479,0.12506,-0.28307,-0.23207,0.048531,0.35465,0.25261,0.48213,0.35466,-0.51258,-0.84422,-0.23204,-0.35957,-0.38506,-0.053427,0.12512,-0.38495,0.43111,0.55866,0.48217,0.76268,0.022974,-0.4871,-0.51259,-0.23201,-0.078972,-0.027944,0.073995,0.17606,0.43116,0.3036,0.30361,0.30367,-0.48713,-0.58917,-0.00254,-0.078923,0.048634,0.68619,0.099552,-0.51262,-0.23209,-0.25756,0.17606,-0.12989,0.58416,0.15056,-0.41052,0.30357,0.60962,-0.027956,-0.20653,-0.23203,-0.51252,-0.15544,0.30362,-0.20651,-0.1045,-0.13,0.023047,0.12504,0.53316,0.66064,-0.38506,0.12501,0.12503,-0.053549,-0.12996,-0.33388,-0.12996,0.50757,-0.30854,-0.56361,-0.078972,-0.10436,0.099534,0.45656,-0.0535,-0.12998,0.5332,0.73726,-0.18103,-0.46161,-0.46159,0.17607,0.53323,0.35467,-0.15551,-0.28305,-0.53812,-0.48712,-0.30853,0.17606,0.27805,0.073989,0.099577,-0.20647,-0.33397,-0.79299,0.55858,1.0176,0.50769,0.2782,0.048573,-0.66566,-0.53817,0.15054,0.023103,-0.053451,-0.41049,0.073953,0.15048,0.048567,-0.028005,-0.027962,-0.15548,-0.002405,0.30366,0.048573,-0.20653,0.17604,0.60964,-0.18102,-0.35955,-0.13005,-0.35952,-0.28295,-0.12996,0.22709,0.30362,0.32912,0.32908,0.27804,-0.23202,-0.41055,-0.23204,-0.027987,0.12509,0.2526,0.38011,0.22704,-0.25755,-0.38509,-0.6401,0.099632,0.55861,0.17607,-0.078947,-0.078892,-0.18098,-0.10451,0.099491,-0.079063,-0.00251,0.45659,0.78825,-0.12991,-0.97158,0.022986,0.58414,0.17609,-0.18098,-0.5126,-0.30861,-0.00251,0.40572,0.53325,0.60967,-0.1045,-0.53811,-0.35957,-0.2065,0.022992,-0.23203,-0.15551,0.048549,0.40561,0.68626,0.60979,-0.027944,-0.027993,-0.20655,-0.43609,-0.71661,-0.20652,0.048518,0.20155,-0.053402,0.22712,0.22702,0.15054,0.2016,0.25261,-0.30855,-0.43609,0.66075,0.73726,-0.64009,-0.69111,-0.58913,-0.0535,-0.13003,0.048463,0.53307,0.074038,0.074087,0.32921,0.40571,-0.027993,-0.33408,-0.43603,0.099515,0.22708,-0.053451,-0.07899,-0.48706,-0.18104,0.30366,0.89033,0.53314,-0.20656,-0.71671,-0.69113,-0.41055,-0.053476,-0.078984,-0.002448,0.5842,1.1199,-0.23189,-0.10453,-0.13014,-0.41058,-0.51259,-0.43604,0.023084,0.40565,0.32914,0.048567,0.02301,0.20155,0.25262,0.45671,0.15059,-0.48713,-0.9207,-0.15556,0.32905,-0.12998,-0.35952,-0.48707,0.099613,0.50769,0.6607,0.43108,-0.33407,-0.46161,-0.23202,0.023127,0.8902,0.20157,-0.15542,-0.51252,-0.35962,-0.28308,-0.13002,0.023041,0.43121,0.27819,-0.027931,-0.18101,-0.027962,0.48202,0.4311,-0.027993,-0.58908,-0.64006,-0.56359,-0.35954,0.1761,0.60967,0.73717,0.20156,0.17606,0.20157,-0.25756,-0.10445,0.32919,-0.12996,-0.64011,-0.23203,0.074038,0.023023,0.17602,0.4056,-0.079002,-0.33403,0.53314,0.25257,-0.2065,-0.56358,-0.35951,0.35465,0.32921,0.38016,-0.079033,-0.38515,-0.41059,-0.053458,-0.35945,0.50762,0.45659,0.15051,-0.18103,-0.48707,0.023059,0.074038,-0.33401,-0.15548,-0.12997,0.25276,1.0178,0.73713,-0.41059,-0.76776,-0.46164,-0.46158,-0.28298,0.50777,0.45675,-0.12996,-0.30856,-0.28311,-0.028096,0.022974,0.20159,0.30363,0.4312,0.2527,-0.20649,0.023005,-0.18103,-0.181,0.074013,-0.053495,-0.10446,0.074069,0.074069,0.17608,0.17609,-0.283,-0.41058,-0.002497,0.3291,0.15054,0.17609,0.20157,0.25262,0.023108,-0.25749,-0.46161,-0.25754,-0.002472,-0.25753,-0.053549,0.32907,0.40562,0.45672,0.20169,-0.23192,-0.13007,-0.028011,-0.053506,-0.20653,-0.71659,0.40559,0.55859,-0.027938,-0.41043,-0.053537,0.15049,-0.41055,-0.10443,0.17614,0.71173,0.30355,0.048487,-0.13009,-0.18106,-0.94616,-0.99717,-0.46158,0.86482,1.63,1.3494,-0.41055,-1.1503,-0.71668,-0.33409,0.35456,0.55866,0.074087,-0.078972,0.048561,0.20156,-0.23201,-0.38505,-0.46147,0.55873,0.73718,-0.20658,-1.3542,0.58416,1.3238,-0.13001,-0.89516,-0.56366,-0.25754,0.023078,-0.002436,0.2526,-0.18103,-0.053482,0.20157,0.73721,0.25261,0.43112,0.25262,0.15062,-0.30849,-0.61461,-0.53811,-0.4871,-0.28308,-0.028011,-0.2065,-0.30843,0.50766,1.3493,0.78823,0.38017,-0.56358,-0.9207,-0.30856,0.02301,0.3291,0.20156,-0.69112,-0.64008,0.20164,1.3749,0.3291,-0.58917,-0.35961,-0.30856,-0.51257,0.12507,0.40564,-0.12994,0.6096,0.43113,-0.69106,-1.0227,-0.43602,0.30362,0.60968,0.40563,0.27813,-0.053476,-0.48713,0.12502,0.25261,0.17608,0.15053,-0.18105,-0.43607,-0.43607,-0.35954,0.048573,0.023041,0.35459,0.3546,0.76272,0.22711,-0.10445,-0.66558,-0.23207,0.27803,0.048555,-0.053446,0.023041,0.38009,0.60968,-0.23199,-0.334,-0.35948,-0.64007,-0.10461,-0.028018,0.66077,0.8648,-0.25758,-0.15554,0.17603,-0.23201,-0.18101,-0.35959,-0.23203,-0.15544,0.20167,0.8391,0.32905,-0.25743,0.40566,0.22711,-0.28303,-0.30858,-0.053506,0.074033,-0.33404,-0.10447,0.20161,0.0741,0.17606,-0.002472,0.20157,-0.079021,-0.10452,0.1506,-0.18101,-0.13002,0.40568,0.43118,-0.38509,-0.43612,-0.25756,-0.30858,0.074062,-0.15542,0.45673,0.35463,-0.10451,0.048536,0.17602,-0.15551,-0.15549,-0.18097,0.074111,-0.38499,-0.13002,0.45659,0.099534,-0.002461,0.07402,-0.20656,-0.28306,-0.25746,1.0178,0.58424,-0.56355,-0.53812,-0.30855,-0.053458,-0.002443,0.22712,0.099583,0.53304,-0.10452,-0.56353,-0.58907,-0.10455,-0.13002,0.27809,0.25257,0.20159,0.22715,0.38019,0.22712,-0.078966,-0.10447,0.023023,0.17604,0.0485,-0.43611,-0.53813,-0.002399,-0.078953,0.12509,-0.35953,-0.33405,0.30361,0.60965,-0.028011,-0.027987,0.15059,-0.25754,-0.35957,-0.078972,0.074087,0.50771,0.15059,-0.61465,-0.56362,-0.30855,0.3291,0.30359,0.43115,0.3547,-0.15549,-0.3596,0.022998,-0.30855,-0.053427,0.55862,0.27813,-0.41037,0.78813,-0.33415,-0.94617,-0.46157,0.09954,0.22708,0.099559,-0.23205,-0.35948,0.50763,0.43112,-0.38503,-0.25747,0.17611,0.2781,0.074033,-0.48713,-0.7167,-0.23205,1.1199,1.2729,0.17609,0.023035,-0.18107,-0.7677,-0.69114,-0.5126,-0.15556,0.048536,0.50769,-0.028011,0.099577,1.579,1.8086,-0.079002,-1.2013,-1.1758,-0.13005,0.27805,0.12503,0.12507,-0.23197,-0.48702,-0.15545,-0.13,0.43113,0.22703,-0.66568,0.38009,1.4515,0.91584,0.27813,-0.53807,-0.94622,-0.43608,-0.43609,-0.25757,-0.38513,-0.48712,0.048555,1.4513,0.27813,-0.33396,0.20167,0.32917,0.50764,-0.028005,-0.028072,-0.51265,-0.64012,-0.46159,0.55869,0.38022,0.27817,-0.12993,0.125,-0.15558,-0.3086,-0.0535,-0.002467,0.20164,-0.10447,0.023072,0.60971,0.50767,-0.25754,-0.23206,-0.002436,-0.38507,-0.48709,-0.079008,-0.23201,0.1506,0.17607,-0.18092,0.4056,0.58411,0.22712,-0.002443,-0.20653,-0.20655,-0.28302,-0.35946,-0.3595,-0.15551,-0.25754,-0.81866,-0.33405,0.55865,1.7575,1.0943,0.48214,-0.71668,-1.2013,-0.79321,-0.15553,-0.13005,0.17605,0.35463,0.25263,-0.10446,-0.35953,-0.20647,0.15064,0.66071,-0.002461,-0.20652,-0.30855,0.048531,0.12507,0.048531,0.023023,-0.027993,-0.76756,-0.053549,0.38005,-0.25752,-0.283,0.099577,0.55869,0.22711,-0.38509,-0.58911,-0.64014,-0.28306,0.30356,0.91574,0.76268,-0.10454,-0.56363,-0.027944,0.35466,-0.23201,-0.76763,-0.25755,-0.079008,-0.002485,0.25257,0.83925,0.96683,-0.15549,-0.86968,-0.41059,-0.1555,-0.027938,-0.25754,0.38002,0.09954,0.023078,-0.002412,0.43108,0.25259,-0.10445,0.023029,0.12506,0.48219,-0.10452,-0.33401,-0.41057,-0.69112,-0.20655,-0.002472,0.023023,-0.053451,0.12508,0.55872,0.58418,0.73712,0.09951,-1.1246,-0.053525,-0.002552,-0.43604,0.074142,0.73728,-0.002418,-0.76764,-0.61462,-0.23209,0.12501,-0.10455,-0.23204,0.35467,1.1964,0.45673,-0.46157,-0.30858,-0.20656,-0.46163,-0.48713,-0.002454,0.94134,0.58421,0.78828,-0.002412,-0.69118,-0.86977,-0.43611,-0.25756,-0.30853,-0.053433,0.40568,0.43119,-0.002418,0.023017,-0.027993,-0.028005,-0.10452,0.12504,0.5332,0.35462,-0.23201,0.048494,-0.13002,-0.56363,-0.43604,0.35467,0.50768,0.20161,-0.18098,-0.02798,0.43115,-0.18101,-1.0737,-0.33406,0.4311,-0.002503,-0.20652,-0.33403,0.023041,0.32913,0.55866,0.60966,0.30358,-0.41058,-0.58912,0.89033,1.8596,-0.25752,-1.2523,-0.38512,-0.35954,-0.48708,-0.51257,0.074038,-0.13001,0.074062,0.22709,0.048525,0.074087,0.45673,0.73731,0.48224,-0.35949,-0.053586,-0.079057,-0.33407,-0.18107,-0.43611,-0.4106,0.17606,0.17609,-0.027931,-0.10447,0.1251,0.023084,0.048592,-0.18085,0.96671,0.53301,-0.74221,-0.79316,-0.10446,0.22715,-0.15546,-0.5891,-0.33404,0.023078,0.68621,0.63518,0.22707,-0.05347,-0.23205,-0.10453,-0.20656,-0.20652,0.048573,0.1506,0.1506,0.023059,0.32919,0.40571,-0.12995,-0.66562,-0.58915,-0.18104,0.099491,0.12492,-0.002503,0.20163,-0.23196,-0.53805,0.38018,0.63521,0.71168,0.25257,-0.86971,-0.15551,0.58421,-0.078977,-0.43611,-0.1555,-0.078984,0.074075,0.048567,-0.13002,0.074026,0.22714,0.68618,0.32911,-0.10446,-0.35954,-0.56361,-0.30854,-0.078966,0.023023,-0.20655,-0.25757,-0.002454,0.45661,0.22705,0.023096,-0.25745,-0.15545,0.048536,0.48213,0.71169,-0.15557,-0.84422,-0.61458,-0.078935,0.38023,0.35468,0.15056,0.02298,-0.89515,0.20144,0.048415,-0.43613,0.12512,0.9414,0.2782,-0.078935,-0.12995,-0.25754,-0.10452,-0.20656,-0.4106,-0.23203,-0.13,0.22709,0.30363,0.60974,0.38015,-0.15553,-0.51263,-0.43606,0.25265,0.83926,0.66072,-0.0535,-0.6657,-0.53812,-0.283,-0.078972,-0.23199,0.07402,0.35456,0.25259,-0.002467,-0.20647,-0.25746,0.66076,0.89031,0.38014,-0.43607,-0.74218,-0.4106,-0.002497,0.20158,-0.35954,-0.002516,0.43117,0.27803,-0.51266,-0.46158,0.074087,0.32913,0.22715,-0.027938,0.023059,0.17606,-0.05347,-0.10449,0.02301,-0.13005,-0.25754,0.20161,0.38016,0.20156,-0.28302,-0.232,-0.38505,-0.20651,0.38015,1.0943,0.32911,-0.51266,-0.84425,-0.5126,0.17609,0.3037,1.0944,0.63511,-0.53817,-0.94617,-0.64009,-0.35956,-0.079033,0.22708,0.99232,0.7883,0.25271,-0.12991,-0.43608,-0.079039,-0.23209,-0.38513,-0.30858,-0.23206,0.30362,0.50774,0.32915,0.25262,-0.35958,0.32904,0.53313,-0.20655,-0.48706,-0.33399,0.02309,-0.69115,-0.5636,0.25261,0.66069,0.43116,-0.053482,-0.28302,0.22707,0.38006,0.15054,0.17609,-0.053415,-0.23196,-0.002418,-0.25751,-0.35958,-0.10458,0.022986,-0.079026,-0.23203,0.074111,0.17615,0.55875,0.40566,-0.51261,-0.20665,-0.48715,-0.23204,0.35463,0.43116,0.099564,0.15064,0.63524,-0.053476,-0.66564,-0.48711,-0.35963,-0.13001,0.15059,0.32914,0.40569,-0.12999,-0.002497,0.023035,0.22707,0.023035,-0.20651,-0.28305,-0.20653,0.023054,0.32918,0.22716,0.099619,-0.13001,-0.23213,-0.18109,0.09954,0.20162,-0.30852,-0.28303,-0.25751,0.25262,0.20161,0.099515,-0.078972,0.22709,-0.33397,0.86464,0.45658,-0.35957,-0.43606,-0.18091,0.30368,-0.43606,-0.8187,-0.46157,0.55864,0.94119,0.60968,-0.002436,-0.33404,-0.30847,-0.15549,0.12499,-0.002521,0.074062,0.074149,-0.23197,-0.10447,-0.13,0.38003,-0.079026,-0.078977,0.22712,0.04858,-0.053495,-0.35956,-0.25754,0.20164,0.25263,0.048506,-0.38505,-0.053458,0.023041,0.125,-0.10456,-0.053519,-0.002418,0.4312,-0.10443,-0.53804,-0.15548,0.68618,1.4004,-0.028029,-0.76772,-0.92073,-0.64017,-0.15551,0.15062,0.32916,0.25265,0.22716,0.30361,-0.053488,-0.10448,-0.079026,-0.28301,-0.30858,0.32902,0.4566,0.32921,0.12514,-0.33406,-0.38505,-0.28303,-0.20655,-0.33409,-0.48711,-0.00251,0.048567,0.86474,0.96677,0.099595,-0.61456,-0.56354,0.099595,1.1197,0.099515,-0.33406,0.1251,-0.18097,-0.69109,-0.84422,-0.6147,-0.00251,0.89024,0.91574,0.32915,0.27813,-0.20652,-0.69106,-0.079002,0.02301,-0.05347,-0.027974,0.27811,0.40565,-0.35953,0.023005,0.17605,0.15058,-0.12994,-0.23203,-0.28305,0.17604,0.38011,0.1506,-0.35953,-0.38505,-0.053513,-0.15553,-0.028011,0.15056,0.1506,-0.38505,-0.41059,-0.41044,1.3493,1.2473,0.023072,-0.30851,-0.43604,-0.53812,-0.33409,0.048487,0.09951,-0.13,-0.053451,0.22717,-0.10445,-0.18099,0.074062,-0.25752,0.12502,0.71163,0.55866,-0.18101,-0.61466,-0.30855,0.22712,0.30363,0.023059,-0.053439,-0.28297,-0.05347,-0.23202,-0.18112,-0.053525,-0.15549,0.023054,0.25265,0.55871,0.66071,0.2271,-0.25752,-0.5891,-0.71666,-0.25759,0.022961,0.099588,0.66078,0.73727,0.07402,-0.58918,-0.56361,-0.41056,0.12505,0.27811,0.20161,-0.027987,0.35463,0.38016,0.17613,-0.25752,-0.61467,-0.51263,-0.30861,0.2781,0.71177,0.38017,-0.25751,-0.46157,0.38014,0.66073,0.35464,-1.0481,-0.30865,-0.2067,0.048525,-0.35952,-0.12991,0.63531,-0.078941,-0.53812,-0.2831,0.25252,0.43119,0.78823,0.55869,0.15063,0.22719,-0.18104,-0.46167,-0.74218,-0.58912,-0.25752,0.074051,-0.002497,0.074051,0.60972,0.66075,0.30364,0.15052,-0.20654,-0.30856,-0.51257,-0.43604,0.25255,0.73715,0.099546,-0.28299,-0.28299,-0.12995,-0.51258,-0.28304,0.38011,0.8137,0.15057,-0.33405,-0.58914,-0.18101,0.048567,0.40568,0.68623,-0.10446,-0.76768,-0.38511,-0.23203,-0.053488,0.09957,0.40568,-0.25744,0.40552,0.22702,0.12507,-0.2575,-0.69112,-0.23203,0.68623,0.86485,0.63528,0.12513,-0.56361,-0.79322,-0.92073,-0.18111,-0.30862,-0.10452,-0.28304,0.32914,0.83932,0.60974,0.40573,0.53328,-0.2575,-0.94625,-0.71675,0.17594,0.58414,-0.10445,-0.86958,-0.002436,0.30361,0.023078,-0.28302,-0.13007,-0.053544,0.1761,0.55875,0.63528,0.074142,0.048463,-0.25763,-0.71666,-0.66561,-0.35956,-0.027998,-0.053525,0.32913,0.68624,0.40574,0.048629,-0.10449,-0.35961,-0.079021,-0.15555,-0.4616,0.17606,-0.12996,0.074069,0.35464,0.38017,0.048536,-0.89514,0.329,0.048482,-0.15546,0.12513,0.023059,-0.20653,-0.1045,0.2781,0.048561,-0.283,-0.078996,0.66064,0.48216,-0.12999,-0.56361,-0.43606,-0.18098,-0.15548,-0.33407,0.30356,0.78821,0.099546,-0.13,0.20159,0.40567,-0.28302,-0.74215,-0.28301,-0.027956,0.048494,0.023017,0.66072,0.2526,-0.25753,-0.20655,-0.35957,-0.002448,-0.027938,0.2016,0.91568,0.73717,0.20161,-0.89511,-0.48716,-0.4361,-0.078966,-0.053378,-0.64009,-0.38507,0.20159,1.0943,0.6352,-0.10455,-0.15559,-0.30858,-0.43607,-0.181,-0.053451,0.099588,0.17603,0.25253,0.35465,0.60977,0.30371,-0.28298,-0.20651,-0.33406,-0.46159,-0.66561,0.73706,0.63518,0.53322,-0.053464,-0.053519,-0.28305,-0.33406
-0.33401,-0.28301,-0.10447,0.074033,0.12502,0.17604,0.27806,0.27806,0.15057,0.09957,-0.053451,-0.20649,0.099546,-0.30851,0.023005,0.048525,-0.002454,-0.002448,0.074075,0.17607,0.12505,-0.05347,-0.002454,-0.002461,-0.02798,-0.002472,-0.20647,0.32906,0.50758,-0.002454,-0.20648,-0.18097,-0.12998,-0.13,-0.078972,-0.078972,0.023035,0.17607,0.20157,0.20156,0.023047,-0.10447,-0.18099,-0.07899,-0.1045,-0.053488,0.023035,0.15056,0.17608,0.12507,-0.002467,-0.15549,-0.1555,-0.13,-0.181,-0.10447,-0.027956,0.099552,0.12507,0.12507,0.074033,-0.02798,-0.25751,-0.027974,0.27804,0.27807,0.15056,0.074057,0.048555,-0.15548,-0.20649,-0.283,-0.078977,-0.002485,-0.283,0.17605,0.38007,-0.027974,-0.12997,-0.078959,-0.078977,0.023041,0.048525,0.02301,-0.13,-0.10447,0.074062,0.22708,0.25257,0.023029,-0.385,-0.283,0.15053,0.048531,-0.053476,-0.078972,-0.027974,0.099564,0.12505,0.15055,-0.002461,-0.078984,-0.027969,-0.12999,-0.1045,-0.027969,0.22707,0.22709,0.17607,-0.027962,-0.181,-0.30852,-0.10449,0.048536,0.048543,0.023035,-0.078977,0.074051,0.099564,0.20158,0.048549,-0.027969,-0.15551,-0.18101,-0.02798,-0.10446,0.25256,0.17604,-0.078972,-0.002448,-0.12998,-0.027969,0.048543,-0.002467,-0.078984,-0.283,0.023029,0.22705,0.099564,-0.027969,-0.027969,-0.078966,-0.10447,-0.12999,-0.4105,0.25254,0.50758,0.20156,0.023035,-0.002454,-0.10445,-0.28301,-0.078977,-0.053488,-0.027969,-0.12999,0.099552,0.023047,-0.053458,0.048561,0.048555,-0.079002,0.023035,0.048543,-0.002472,0.023023,0.099552,0.12509,-0.027962,-0.13001,-0.10447,-0.15546,-0.078972,-0.027993,-0.027974,0.22707,0.17606,0.22707,-0.002461,-0.10447,-0.078972,-0.25751,0.023035,0.12504,0.048512,-0.002479,-0.002461,-0.053439,0.30357,0.20157,-0.181,-0.4105,0.15054,0.25254,-0.053476,-0.283,-0.027969,-0.027956,0.09957,0.048555,-0.10449,-0.078977,-0.12998,0.12505,0.27804,0.15053,0.048549,-0.28297,0.50761,0.30358,-0.3595,-0.4615,-0.334,-0.18101,-0.027969,0.048543,0.17605,0.22706,0.22707,0.12507,-0.078972,-0.10447,-0.2065,-0.07899,-0.027987,0.048549,0.22707,0.12506,-0.027956,-0.12998,-0.078972,-0.15549,0.15056,0.023041,-0.10449,-0.078972,0.074051,0.30358,0.12507,-0.10448,-0.20649,-0.053464,0.15054,-0.12999,-0.23201,-0.10447,0.048536,0.22707,0.048555,0.023035,-0.12998,0.023041,0.099546,-0.15549,-0.38505,-0.35953,-0.18103,0.55869,0.86479,0.66065,-0.053506,-0.56357,-0.69112,-0.079045,-0.15553,0.0485,-0.002479,0.27806,0.074093,-0.027895,0.20166,0.04858,-0.15546,0.09954,-0.38509,-0.10458,-0.079021,0.50766,0.4567,-0.078977,-0.23203,-0.028005,-0.23201,-0.69112,-0.56362,0.20155,0.43108,0.58422,0.20169,-0.078935,-0.48704,-0.002485,0.55861,0.048463,-0.64011,-0.53806,-0.053421,1.4004,0.91577,-0.13013,-1.0738,-1.0482,-0.35958,0.3291,0.17607,0.68617,0.68624,-0.48696,-0.89511,-0.10452,-0.28307,0.048458,0.27808,0.99227,0.22713,-0.38504,-0.079002,0.86481,1.1199,0.17612,-0.64011,-1.2268,-0.9463,-1.1248,-0.74218,0.43112,0.27814,0.099595,0.99229,1.7065,0.38017,-0.41054,-0.4361,-0.76771,-0.69119,-0.56367,-0.5636,0.35467,1.579,1.6555,-0.10447,-1.0227,-0.92073,-0.64025,0.099491,0.76283,0.73734,0.40564,0.22695,-0.61462,-1.2268,-1.3798,-0.81866,0.48211,2.3187,1.477,0.15056,-0.86971,-0.53817,-0.38508,-0.25756,-0.30853,-0.61453,0.099583,0.7117,0.71159,-0.027993,-0.51253,-0.1299,-0.027882,0.32917,-0.13,-0.58916,-0.35954,0.86474,1.6044,0.38006,-0.69121,-0.89519,-0.64012,-0.56357,-0.027931,0.048604,0.2271,0.17609,0.17604,-0.13007,-0.33405,0.96683,1.3495,0.73726,-0.56358,-0.92073,-0.33416,-0.66564,-0.30857,0.023023,-0.12996,-0.18096,-0.12997,0.25259,0.50769,-0.002423,0.38011,0.30355,0.17594,-0.35965,-0.56361,0.53325,0.40575,-0.38494,-0.43596,-0.18105,-0.028109,0.023047,-0.02798,0.022968,-0.053495,-0.35954,0.099552,0.15059,0.09954,-0.28302,-0.10449,-0.30851,0.20159,0.27814,0.40566,0.71166,0.40566,-0.15543,0.073984,-0.28308,-0.97166,-0.33401,-0.1555,-0.10453,-0.027987,0.2526,0.35465,0.32915,0.15062,0.048561,-0.46162,-0.79319,-0.41061,0.27812,0.9413,0.20159,0.074044,-0.35954,0.074013,0.15047,-0.64006,-0.58903,-0.15544,0.4312,0.38011,0.17601,-0.4871,-0.46157,0.2526,0.48213,0.38009,0.2271,-0.13,-0.46162,0.40566,0.68625,-0.38501,-0.79316,-0.53809,0.12499,-0.053513,-0.053458,0.38012,0.32912,0.55869,-0.078917,-0.30853,-0.58909,-0.33406,0.074026,0.15056,-0.07899,0.15057,0.38013,0.55866,0.68613,-0.46157,-0.56348,0.30368,0.25267,-0.58911,-0.7932,-0.15556,-0.028023,0.27621,0.58223,0.19971,-0.5126,-0.2575,0.40568,1.1708,0.68615,-0.18103,-0.64009,-0.58904,-0.232,-0.20653,-0.25753,0.048555,0.048561,0.20159,0.15053,0.48213,0.048518,-0.053513,0.38011,0.68627,0.074106,-0.58913,-0.56365,-0.20646,0.43119,0.27808,-0.43607,-0.51264,-0.46157,0.099583,0.023047,0.20155,0.099564,-0.053451,0.48214,-0.027931,0.048543,0.68608,0.27806,-0.28297,-0.6145,-0.41049,-0.25751,-0.00251,0.048543,0.25255,0.53316,0.68626,0.048543,-0.61462,-0.71668,-0.94622,-0.43603,0.30366,0.94128,0.15057,-0.027998,-0.13005,0.35456,0.15057,-0.027925,-0.33402,0.17614,0.40568,-0.13002,-0.74216,-0.43607,0.17606,0.20156,0.074081,-0.027944,-0.12996,-0.10451,-0.028005,0.27809,0.43118,0.27813,-0.078972,-0.28298,-0.30859,-0.18109,0.07402,-0.002448,-0.10444,-0.002491,0.30359,-0.053458,0.2271,0.074075,-0.30853,0.048525,0.023059,0.32907,-0.002497,0.30359,0.25262,-0.18098,-0.7166,-0.5891,-0.15549,0.25258,0.63525,-0.15549,-0.46155,-0.20651,-0.0535,0.15057,0.43115,0.53321,0.099559,-0.58911,-0.48709,0.12503,0.35456,0.023035,0.27812,-0.053427,-0.25749,-0.38505,-0.28305,0.048561,0.53319,0.2526,0.048555,0.022986,-0.28306,-0.2575,0.3801,0.27811,-0.002479,-0.25753,-0.053476,-0.002461,0.12508,0.20159,0.1251,-0.1045,-0.46159,-0.23203,-0.10445,0.27811,0.30354,0.73716,0.38019,0.27815,-0.35955,-0.64015,-0.51264,-0.41058,-0.20647,0.20163,0.55872,0.40567,0.20155,-0.10452,-0.2065,0.022998,0.17604,0.023047,-0.33402,-0.028023,0.20156,0.48216,-0.2065,-0.181,-0.053476,-0.027969,0.048494,-0.30855,-0.23196,0.58428,0.27814,-0.053488,-0.18105,-0.28306,-0.3596,-0.48713,-0.18101,0.81378,0.81373,0.73727,0.048561,-0.8442,-0.53811,-0.13001,-0.25756,0.048525,-0.002472,-0.38508,-0.20651,0.20165,-0.23191,0.25263,0.89022,0.60968,0.27811,-0.13002,-0.30853,-0.078953,-0.35959,-0.69118,-0.74217,-0.12999,0.27811,0.40565,0.25262,0.30354,0.32902,0.25262,0.22712,0.32915,-0.20649,-0.56356,-0.46157,-0.10447,-0.12999,-0.25753,-0.027969,0.074044,-0.079002,-0.12999,0.12504,0.30358,0.32913,0.25259,0.25262,0.074033,-0.28309,-0.43608,-0.46154,-0.30852,-0.053464,-0.027956,-0.20646,0.89025,1.0942,0.43112,-0.43604,-0.35953,-0.48709,-0.25755,-0.15553,-0.23202,-0.1555,-0.079008,-0.027969,0.43113,0.25258,0.53316,0.32906,0.32908,0.099619,-0.12998,-0.28305,0.074033,0.023035,-0.4361,-0.2321,-0.33409,-0.13002,-0.002479,-0.2065,-0.15545,0.76279,1.375,0.76273,-0.15554,-0.89526,-0.92074,-0.81867,-0.25754,-0.053433,0.32917,0.83928,0.40565,-0.2065,-0.23201,0.20161,-0.002461,0.02301,-0.18103,-0.23197,-0.078977,-0.35953,-0.28303,-0.1555,0.4311,0.35458,0.048549,0.09954,0.12506,0.3036,-0.027969,-0.15555,0.023059,0.38017,0.22707,-0.13005,-0.46159,-0.28305,-0.33409,-0.12998,0.30368,0.27818,0.023047,-0.30855,-0.18107,0.60965,0.89026,-0.10445,-0.56359,-0.38506,-0.053519,-0.078935,-0.28302,-0.15552,0.35461,0.25257,-0.13,-0.053464,0.099588,-0.078996,-0.053506,-0.028005,0.30362,0.25264,0.17609,-0.33404,-0.51259,-0.027969,0.048555,0.074002,0.12504,-0.23201,-0.30852,-0.10447,-0.027993,0.023017,-0.10447,0.30361,0.73721,0.30365,-0.002423,-0.51257,-0.23204,0.25255,-0.002467,-0.12998,-0.053488,-0.079045,-0.15553,-0.53807,-0.41054,0.25263,0.7117,0.48215,-0.053476,-0.3851,-0.28306,0.074062,-0.053488,0.27815,0.43121,-0.053451,-0.28305,-0.33409,-0.13001,0.15057,-0.002472,-0.20654,-0.28301,-0.02792,0.30366,0.43114,-0.10453,-0.48708,0.048561,-0.002454,-0.027969,0.12505,-0.30852,-0.10444,0.32917,0.32912,-0.35961,-0.66569,-0.028011,0.27805,-0.053525,-0.053495,0.45669,0.20167,-0.28302,-0.46164,-0.18103,0.048561,-0.027987,-0.10452,-0.13002,-0.027962,0.17612,0.32913,0.45669,-0.02795,-0.51263,-0.46162,-0.33411,-0.15556,0.099564,0.40568,0.25264,-0.002461,0.023059,-0.30856,-0.28308,-0.33407,-0.18101,-0.078953,-0.053458,0.27803,0.17603,-0.002454,-0.38505,-0.12998,0.17615,0.40566,0.20154,-0.25754,-0.002491,0.048567,0.35465,0.35461,-0.2575,-0.12999,-0.15555,-0.079002,-0.15553,-0.12999,-0.13002,0.023054,0.17607,0.17607,0.0741,-0.027907,0.12502,0.048536,-0.002454,-0.078966,-0.079033,-0.13004,0.20158,0.074087,-0.436,-0.002381,0.074062,-0.053488,-0.15553,-0.15554,-0.15553,0.22705,0.35462,0.25262,0.048561,0.023041,-0.053446,0.048555,-0.30854,-0.33405,-0.028018,-0.15554,-0.2575,-0.12996,0.22712,0.25265,-0.027993,-0.13004,0.12507,0.60971,0.66072,0.099552,-0.51258,-0.76764,-0.46162,0.074013,0.40566,0.023047,-0.2575,-0.027969,-0.053488,0.099564,-0.002485,-0.15546,-0.10444,0.2271,0.45667,0.30364,0.15052,-0.10452,-0.20656,-0.35956,-0.38504,-0.181,0.074062,0.12507,-0.053464,0.074057,-0.10445,0.048561,0.25256,0.15052,-0.079008,-0.053464,-0.23197,-0.30848,-0.23199,-0.027974,0.43113,0.32912,0.099559,-0.15551,-0.25758,-0.15553,0.099588,0.35463,0.20155,0.27813,0.023035,-0.20655,-0.18103,-0.10449,-0.053488,0.099583,-0.027925,0.099577,0.023035,-0.027969,0.20159,0.25258,-0.20653,-0.25753,0.15055,-0.053537,-0.25753,-0.053409,0.099608,-0.002443,-0.13002,-0.20653,0.048549,0.12505,-0.027969,0.099564,0.43117,0.25262,-0.25753,-0.23202,-0.078996,0.20155,-0.002479,-0.002448,0.12509,-0.23202,-0.12994,0.099608,0.15058,-0.38508,-0.25761,0.12502,0.30361,-0.18098,-0.38505,-0.10449,0.17609,-0.079021,0.02301,0.3036,0.17607,0.074051,-0.053488,-0.181,-0.18101,-0.053464,0.22712,0.15056,0.20156,-0.12999,0.023047,-0.25754,0.12502,0.12509,-0.002412,-0.10446,0.02309,0.20159,0.3036,-0.002497,-0.20653,-0.18106,-0.053544,-0.33406,-0.15549,0.20163,0.22713,0.023065,-0.027944,0.27811,0.25258,-0.00251,-0.10454,-0.027993,-0.12999,-0.181,-0.053464,0.12508,0.17606,0.12509,0.38013,0.25257,-0.053495,-0.25754,-0.41057,-0.30852,0.074069,0.20158,-0.10447,-0.002467,0.30356,0.099528,0.12505,0.2526,-0.053427,0.04858,-0.027969,0.32912,0.32913,-0.002443,-0.4106,0.048415,-0.02798,-0.15546,-0.38502,-0.41051,-0.20652,0.22708,0.3291,0.17609,0.12505,-0.20652,-0.13001,0.023047,0.09957,0.2526,0.15056,0.50756,-0.18101,-0.38501,-0.23197,0.0741,0.22711,0.022968,-0.028036,-0.12999,-0.15545,0.15055,0.023017,-0.12999,-0.10447,0.2016,0.35465,-0.23201,-0.5126,-0.33406,-0.10447,0.048543,0.074002,0.048536,0.048518,0.09954,0.35466,0.27815,-0.15549,0.048536,-0.05347,0.20159,0.048549,-0.078977,-0.15551,-0.13,-0.002491,-0.053464,-0.078935,-0.02792,0.074075,-0.002467,-0.12999,-0.10449,-0.1045,-0.053495,0.048531,-0.027969,0.023041,-0.053458,0.023078,0.048525,-0.28308,-0.20655,0.15051,-0.15551,-0.027974,-0.078941,0.5587,0.6352,-0.12999,-0.38506,-0.4106,-0.28308,-0.25758,-0.053506,-0.079008,0.27811,0.68625,0.048567,-0.10448,0.12505,-0.10451,-0.15551,-0.28303,-0.23201,0.074069,0.048536,-0.002485,-0.10445,0.15062,0.40562,-0.002491,-0.38505,-0.078984,0.30363,0.43113,-0.02798,-0.5891,-0.46157,-0.15551,-0.13,0.048531,0.48213,0.30358,0.15059,-0.002448,-0.28302,-0.25752,0.074051,0.25259,0.5842,0.45669,-0.33405,-0.66565,-0.53815,-0.30858,-0.15551,0.48214,0.4822,0.099626,0.023054,-0.002461,0.048531,-0.30859,-0.33407,0.048543,0.099588,0.53321,0.27808,-0.30852,-0.35954,-0.13005,-0.053476,0.12508,0.40564,-0.23201,-0.20651,0.099546,-0.002485,-0.02795,0.074111,0.099559,0.099552,-0.002485,-0.053482,0.074002,-0.33406,-0.23201,0.02309,0.15058,0.12508,0.30355,0.074026,-0.078947,-0.15551,0.023029,0.25257,-0.25754,-0.15547,0.32918,0.2526,-0.027993,-0.28306,-0.43609,-0.35957,-0.028018,0.15055,-0.00243,0.1506,0.048598,0.20164,0.30363,-0.053488,-0.1045,-0.053506,0.2271,-0.027969,0.099619,-0.053421,-0.18103,-0.079039,-0.20655,-0.15549,-0.15553,-0.028018,0.023029,-0.002448,0.023084,0.17612,0.53325,0.58421,0.35459,0.12504,-0.3851,-0.81872,-0.56362,-0.30852,-0.15549,0.09957,0.32913,0.50769,0.50765,0.099577,-0.12997,-0.23202,-0.23201,-0.18101,0.048543,0.40564,0.15061,-0.002454,-0.18105,-0.30857,-0.35956,-0.23203,-0.002516,0.3036,0.32916,-0.027931,-0.12996,0.048567,0.15057,-0.002461,0.02301,-0.028018,-0.002503,-0.23203,-0.23199,-0.18097,0.048549,0.048555,-0.027969,-0.027962,0.048543,0.3036,0.27811,-0.078972,-0.053488,0.15061,0.15063,-0.1045,-0.30858,-0.18106,-0.079021,0.20156,0.25263,-0.027944,-0.41058,-0.18102,-0.20649,0.023059,0.38011,0.38012,0.38016,-0.30854,-0.33405,-0.25753,-0.20652,-0.053476,0.074069,0.12505,0.35459,0.35463,0.023047,0.25256,0.15054,-0.053488,0.048567,-0.53804,-0.48702,-0.25746,-0.027987,-0.002503,0.02301,0.023017,0.35458,0.2526,0.023041,0.25263,0.1506,-0.23201,-0.053495,0.20155,0.023047,0.17609,-0.079014,-0.28303,-0.33402,-0.30852,-0.15548,-0.12998,0.074062,0.58419,0.55866,-0.10455,-0.35957,-0.15549,0.12509,0.48219,-0.053439,-0.28306,0.02301,0.099528,-0.15551,-0.181,-0.20649,-0.078984,0.099552,0.048567,0.17609,0.048543,-0.18104,0.023017,0.2526,0.22711,0.074038,-0.33408,-0.18101,-0.51257,-0.15545,0.1251,0.2781,0.66069,0.58419,-0.28305,-0.61466,-0.38511,-0.35956,-0.283,0.04858,0.2271,0.22704,-0.20651,0.074087,0.50769,0.38014,0.15058,0.15056,-0.28304,-0.20655,-0.33404,-0.10454,-0.2065,-0.053439,0.04858,0.20157,0.074002,0.048512,0.15061,0.15063,-0.18098,-0.13001,-0.028018,-0.15553,-0.10451,0.15055,0.12501,-0.43602,0.17616,0.50776,-0.02792,-0.053488,-0.18106,-0.10452,-0.20654,-0.13002,-0.027993,-0.079008,-0.027938,0.22712,0.30366,0.40566,-0.10449,-0.13002,-0.3341,-0.28306,0.023035,0.023017,-0.15548,-0.20645,0.074081,-0.002461,0.07402,0.048487,0.023029,-0.053451,-0.10446,0.099588,0.48215,0.40566,0.27809,-0.28302,-0.41058,-0.28308,-0.38509,-0.10448,0.099528,0.048561,0.32917,0.27817,0.099559,-0.002497,-0.028011,-0.30856,-0.48711,0.02301,-0.053476,0.40568,0.1251,-0.15549,0.074111,0.32915,-0.053476,-0.15553,-0.20655,-0.15554,-0.002479,0.25252,-0.002436,0.099608,-0.002418,0.09954,-0.10449,-0.20653,-0.15553,-0.25756,0.048549,0.53317,0.38016,0.048604,-0.20651,-0.18103,-0.15554,-0.002516,-0.35954,0.15057,0.40564,-0.002454,0.15059,-0.3085,-0.23201,-0.15552,-0.07899,0.43107,0.099577,0.023072,-0.027974,0.048555,-0.18101,-0.078972,0.12506,0.43111,0.17607,-0.30858,-0.33408,-0.15553,-0.078972,0.099577,0.27812,-0.12995,0.1251,0.023054,-0.078972,-0.13001,-0.079033,0.023023,-0.078953,-0.053451,0.074038,0.048549,0.20159,0.17609,0.22708,0.20156,-0.33405,-0.51261,-0.002491,0.20158,0.074069,-0.18097,-0.46153,-0.23201,-0.05347,0.3801,0.40558,0.023035,0.074069,-0.23198,-0.10449,0.15054,0.22707,0.074057,-0.25753,-0.28305,-0.10452,0.40562,0.099588,-0.25753,-0.20649,0.25266,0.1506,-0.002503,-0.028018,0.074008,-0.30851,-0.28302,0.17607,0.074026,-0.18101,0.023059,0.12508,0.27806,-0.079008,-0.002467,-0.053439,-0.15548,0.17607,0.3291,0.40567,0.27817,-0.30854,-0.33411,-0.079051,-0.002491,-0.02798,-0.33404,-0.232,-0.12999,0.20158,0.25263,0.45669,0.20158,-0.13,-0.10453,-0.20653,-0.18103,0.023035,0.22711,-0.10448,-0.12998,-0.078972,0.09954,0.074013,-0.23201,-0.25752,-0.027969,0.048536,0.023065,0.22711,0.12508,-0.10449,0.048518,-0.20656,-0.079008,0.17609,0.1251,-0.078966,-0.12998,0.15059,0.15056,-0.18101,-0.33407,-0.28305,0.2271,0.38013,-0.078984,-0.1045,-0.078966,-0.181,-0.002467,0.12507,0.20157,0.27809,-0.0535,-0.053495,0.15055,-0.027969,-0.053433,-0.053458,-0.10449,0.40568,0.30365,-0.35957,-0.33408,-0.28306,-0.23205,0.09954,0.17609,0.048561,0.1251,0.074062,-0.002461,-0.10447,-0.078984,0.099534,0.15054,0.22711,-0.078996,-0.38503,-0.28302,0.17607,0.58418,0.023047,-0.18103,-0.33408,-0.23205,-0.10449,0.12507,0.17612,0.1251,0.15059,0.048555,0.17604,-0.002491,-0.027998,-0.002485,-0.30855,-0.30855,0.25263,0.38021,0.074111,0.023029,-0.20656,-0.002497,-0.027974,-0.07899,-0.027987,-0.181,-0.12998,0.074111,-0.027925,-0.002472,0.17602,0.099552,0.20155,0.099564,0.074038,-0.15549,-0.43606,-0.20647,0.30364,0.60971,0.3291,-0.23205,-0.43612,-0.35962,-0.28304,0.023047,0.074062,0.32915,0.17611,0.15059,0.20158,-0.10451,-0.18102,0.17608,0.58422,0.074051,-0.33406,-0.23202,-0.15551,0.099534,-0.002461,-0.283,-0.2575,-0.23201,-0.027987,0.048536,0.022998,0.1506,0.30365,0.074093,-0.053495,-0.18102,0.022986,0.073995,0.099534,0.12507,0.20163,0.20161,-0.15551,-0.38505,-0.15555,0.20155,0.30363,0.25267,0.58424,-0.078972,-0.41057,-0.41058,-0.25757,-0.002516,-0.12999,-0.0535,0.074013,0.38011,0.38016,-0.10447,-0.027931,-0.35949,-0.12999,0.0485,-0.10452,0.17605,0.35458,0.023035,-0.10449,-0.28298,-0.20645,-0.078953,0.074013,0.20155,0.22707,0.09957,0.074038,-0.10451,-0.232,-0.51256,-0.23199,0.50769,0.81378,0.15054,-0.053525,-0.15556,0.073977,-0.25756,-0.28299,-0.10445,-0.18099,-0.078977,-0.25753,0.25261,0.6607,0.20159,-0.079021,0.048518,0.1506,0.048567,0.099583,0.074087,-0.18102,-0.02798,0.023023,-0.28304,-0.10452,-0.079008,0.22708,0.25264,0.023096,-0.18096,-0.13001,0.15052,-0.053525,-0.053506,-0.0535,0.17607,0.35464,0.1251,0.099588,-0.12997,-0.12998,-0.10449,0.20154,0.048506,-0.28305,-0.41054,-0.12995,-0.15546,-0.027956,0.43114,0.68619,0.17603,-0.23205,-0.35958,-0.10449,0.17609,0.048536,0.074051,-0.23202,-0.25748,-0.002443,0.4822,0.20158,0.0485,-0.23205,-0.41058,-0.15555,-0.18103,0.30363,0.30368,0.099595,-0.027969,-0.18103,-0.23204,-0.13003,-0.002491,0.2016,0.12511,0.099619,-0.027938,0.3291,0.048512,-0.18105,-0.10452,-0.15553,-0.13004,0.048555,0.25265,-0.002405,0.12511,-0.10449,-0.18098,-0.053513,0.17598,-0.13005,-0.25751,0.099595,0.1506,0.20161,-0.002443,-0.20649,0.048518,-0.28306,-0.15553,0.2526,0.86478,0.3547,-0.43604,-0.46159,-0.30856,-0.13004,0.048487,-0.053495,-0.053464,-0.078972,0.074075,0.099564,0.1251,-0.078941,0.048585,-0.078959,0.32912,0.17608,-0.20652,0.048536,-0.48712,-0.58913,-0.20648,0.17611,0.32913,0.38014,0.32911,-0.28306,-0.38506,-0.43611,0.048525,0.12508,0.048573,0.099613,0.12513,0.22714,0.20155,-0.28309,-0.13005,0.048487,0.022986,-0.002454,-0.078941,-0.027889,0.099637,-0.3595,-0.20652,-0.20653,0.02301,0.4566,0.73721,0.15062,-0.56357,-0.58913,-0.053513,0.048573,0.17608,0.20156,-0.079014,-0.15553,-0.18098,-0.053421,0.048573,0.2526,0.023041,-0.078977,0.20162,0.40565,0.25258,-0.13002,-0.56362,-0.64015,-0.51262,-0.20655,0.38014,0.96685,0.81377,-0.20652,-0.43608,-0.30855,-0.23204,-0.23202,-0.13001,-0.12998,0.074087,0.1506,0.25257,-0.10454,0.15058,0.27815,0.023072,-0.1555,-0.41058,-0.35953,-0.05347,0.3291,0.35463,-0.002491,-0.10455,-0.18104,-0.15549,-0.18095,-0.078935,-0.2575,-0.078953,0.023035,0.55865,0.38011,0.17603,-0.10449,-0.43608,-0.6401,-0.43609,-0.078972,0.023017,-0.181,0.099564,0.32913,0.43117,0.60969,0.17612,-0.10447,-0.2065,-0.20654,-0.15549,-0.25755,-0.10454,0.023023,0.048543,-0.18099,-0.33405,0.27811,0.71171,0.20161,0.12512,-0.48707,-0.25757,-0.18106,-0.027998,-0.079002,-0.10448,0.099583,0.25263,-0.053446,-0.12998,0.048573,-0.053519,-0.002485,-0.028036,0.022992,0.048549,0.4822,0.27809,-0.078977,-0.30852,-0.33402,-0.1555,-0.053488,0.2526,0.45669,-0.3596,-0.58918,-0.10452,0.50771,0.68626,-0.053476,-0.33406,-0.46155,0.12502,-0.18105,-0.20649,0.04858,0.27811,0.27814,0.15059,-0.078996,-0.20659,-0.053519,-0.002399,0.048585,0.25259,0.22712,-0.25753,-0.18101,-0.027962,-0.0535,-0.053531,0.20156,-0.053488,-0.23205,0.074081,0.71182,0.43118,-0.027993,-0.23203,-0.61462,-0.58914,-0.28303,0.099577,0.20158,0.12508,0.074033,0.022992,0.45665,0.40565,-0.078959,-0.30852,-0.48706,-0.23207,0.023047,0.30364,0.30363,0.15055,-0.23203,-0.28303,-0.28302,0.20155,0.40563,0.17607,-0.30854,-0.20653,-0.027944,0.099546,0.048512,-0.002461,0.30365,0.12509,-0.23203,-0.078977,0.074051,-0.1555,-0.027969,0.35458,-0.181,-0.181,0.074057,0.074038,0.023047,-0.18102,0.17607,-0.027944,-0.15549,0.3036,0.68624,-0.027956,-0.56362,-0.15553,0.074038,0.048561,-0.33405,-0.25761,-0.053488,0.15059,-0.078941,0.17614,0.25267,0.048549,0.17607,0.32904,-0.23212,-0.30862,-0.43609,-0.28302,0.074087,0.30364,0.22708,0.58414,0.12507,-0.61462,-0.5126,-0.35956,0.023041,0.55866,0.35461,0.12504,0.20155,-0.002454,-0.1045,-0.079008,0.074038,-0.18101,-0.23204,0.25262,0.35467,-0.053402,-0.078928,0.38013,0.023047,-0.23205,-0.46156,-0.20651,-0.23202,-0.10448,0.023059,0.023078,-0.027944,0.2271,0.38011,0.40561,0.099559,0.2526,0.023065,-0.18101,-0.35958,-0.25754,0.023041,0.58421,0.074062,-0.4871,-0.48711,-0.18101,0.17609,-0.002472,-0.02795,0.17609,0.35461,0.12508,0.023023,-0.027993,-0.12998,-0.13,-0.25752,-0.20653,-0.13001,0.40565,0.50769,0.20158,-0.15553,-0.18103,-0.232,-0.25752,-0.053476,0.35458,0.25261,-0.15546,-0.18098,-0.23202,0.15059,0.12506,-0.10452,-0.053555,-0.002485,0.4822,0.22718,-0.15543,-0.56362,-0.18108,0.1505,-0.002485,-0.13,-0.053458,-0.00243,0.074087,0.074062,-0.027944,0.12507,0.12504,0.38013,0.048543,-0.25752,-0.20652,-0.15551,-0.18103,-0.33402,0.1506,0.32913,0.60965,-0.15549,-0.43609,-0.35958,-0.07899,0.023017,0.30362,0.32915,0.048536,-0.1045,0.15059,0.023072,-0.41055,-0.28305,0.048469,-0.15551,0.074062,0.12513,0.66072,0.30358,-0.23205,-0.5381,-0.28305,-0.23202,-0.027962,0.12504,0.099577,0.099595,0.07413,0.58421,0.12503,-0.23207,-0.079014,-0.1045,-0.20653,-0.25753,-0.10445,0.4312,0.25261,-0.20652,-0.079008,-0.13,0.20156,0.20157,-0.02798,-0.15552,-0.12999,-0.20649,-0.10449,0.35464,0.32915,0.35461,0.35462,-0.07899,-0.53812,-0.41055,-0.078972,0.15051,0.074013,-0.23201,0.27816,0.35464,-0.181,-0.15548,-0.002467,0.25256,0.40563,-0.002443,-0.25754,-0.13002,0.09954,0.023041,0.023017,-0.13002,-0.25753,-0.15551,0.2271,0.40566,-0.053421,-0.1555,-0.002461,0.15054,-0.053488,-0.23202,-0.28303,0.22708,0.43115,0.12506,-0.43604,-0.2575,0.099564,0.048561,-0.12999,-0.15556,-0.079008,0.48216,0.48218,0.48213,-0.13,-0.6146,-0.38508,-0.58911,0.32914,0.73724,-0.05347,-0.35953,0.074051,0.3546,0.023047,-0.23201,-0.23205,-0.20656,-0.10452,0.099546,0.25261,0.099546,0.22706,-0.002412,0.09965,0.20162,-0.18103,-0.3596,-0.079008,0.17609,-0.12998,-0.078972,0.023041,0.30361,0.074044,-0.053476,-0.002491,-0.23204,-0.33405,-0.23202,0.2526,0.48218,-0.002448,-0.20649,-0.15543,0.40565,0.15051,-0.10456,-0.10453,-0.15551,0.048549,0.17613,0.32918,-0.28301,-0.5636,-0.10448,0.20156,0.32909,0.25257,-0.30856,-0.5381,-0.10448,0.2781,0.35462,0.048543,-0.05347,-0.23203,0.048531,0.023041,-0.002436,0.023047,-0.002461,-0.12998,-0.002467,-0.053458,0.12507,0.023047,0.12505,-0.053506,-0.02798,-0.12999,0.45661,0.48214,0.023084,-0.30849,-0.23199,-0.10449,-0.18104,-0.30853,-0.15553,-0.28304,0.12505,0.1506,0.20158,0.099595,0.22715,0.1761,-0.1045,0.20158,-0.10454,-0.33407,-0.25756,-0.30853,0.17606,0.20163,-0.1555,-0.28305,0.12505,0.5587,0.53325,-0.334,-0.33407,-0.18106,-0.18102,-0.23201,0.074069,0.22709,-0.027969,-0.078984,0.023035,0.17605,0.32908,0.22705,-0.61457,-0.38502,-0.25752,0.099552,0.099559,0.12502,-0.027969,0.58418,0.32914,0.023065,-0.232,-0.33404,-0.18101,-0.18106,-0.00251,-0.002467,-0.12999,-0.027969,0.074038,0.25258,-0.002497,-0.15544,0.32918,0.35463,0.30359,-0.20651,-0.71668,-0.25756,0.074044,0.22707,0.17607,-0.002467,-0.232,-0.23201,-0.10449,-0.002454,-0.2065,0.023035,0.30358,0.83921,0.43115,-0.18099,-0.33402,-0.43606,-0.35955,-0.18103,-0.053488,0.15056,0.3801,0.074075,0.074038,-0.10446,-0.078966,-0.078996,-0.027993,-0.079002,0.023035,-0.053476,0.099583,0.27815,0.20163,-0.13001,-0.48711,-0.10455,0.35461,0.48214,0.32912,-0.23205,-0.48708,-0.25753,0.38014,0.22715,-0.002423,-0.33405,-0.02798,0.2526,0.17606,-0.13,-0.30855,-0.13002,-0.079002,-0.027962,0.25264,0.15059,-0.28302,0.048531,0.22705,0.074038,-0.18099,-0.078977,-0.053506,0.45669,0.38017,-0.10447,-0.33405,-0.53813,-0.30856,-0.13001,-0.027993,0.15057,0.32916,0.074093,0.15062,0.20161,-0.078996,-0.33407,-0.079021,-0.028005,-0.23205,-0.23205,-0.05347,-0.15546,0.27814,0.25261,0.074038,-0.20653,-0.10451,0.22707,0.27809,0.58421,-0.10448,-0.20651,-0.43606,-0.18102,0.099564,0.22709,0.22707,0.12504,-0.13,-0.18097,0.12511,0.1506,0.12509,-0.079002,-0.23204,0.15057,0.45664,0.40563,0.32907,-0.43606,-0.41058,-0.33406,-0.30856,-0.23205,-0.002497,0.20157,0.1761,0.17608,-0.12998,-0.15551,-0.027962,0.099577,0.074087,0.048561,0.074033,0.2781,-0.002454,0.12505,0.2526,-0.43609,-0.46158,-0.15551,-0.23203,-0.10447,-0.002454,0.50766,0.2526,0.27811,-0.002448,-0.053488,-0.25754,-0.10448,0.099601,0.32912,-0.23205,-0.35959,0.048512,0.32916,0.20161,0.09957,0.099564,-0.20652,-0.38507,-0.15555,0.022992,0.099577,0.15062,0.074069,-0.002454,0.023054,-0.18101,-0.15548,-0.027956,-0.027993,-0.13007,-0.053519,0.22708,0.27811,0.12504,-0.12998,-0.078959,-0.25748,-0.28302,-0.23202,-0.18103,0.099534,0.22706,0.50767,0.43117,-0.053451,-0.41056,-0.15548,0.048555,-0.027993,-0.18105,-0.02798,0.099534,0.099552,0.43114,0.074057,0.074087,0.0741,0.2526,-0.13004,-0.61464,-0.25753,0.074069,0.25259,0.17606,0.02301,-0.15551,-0.053464,-0.43607,0.15059,0.3036,0.48214,0.25262,-0.18102,-0.35958,-0.30858,-0.15549,0.048573,0.17609,0.25257,0.12505,0.023035,-0.12999,-0.23198,-0.15548,-0.181,0.17607,0.35462,0.35464,-0.053495,-0.30854,-0.027969,-0.028042,-0.15556,-0.25755,-0.48707,-0.18097,0.32918,0.53321,0.43118,0.12509,-0.3596,-0.30863,-0.20655,0.15059,0.099546,-0.027956,0.09957,0.20163,0.15058,0.15054,-0.002485,-0.053488,-0.053495,-0.18098,-0.10449,0.023047,0.099564,0.17609,0.15058,-0.35954,0.074038,-0.15554,0.074057,0.2271,-0.02798,-0.002454,-0.10447,-0.20653,-0.053506,0.02301,0.20158,0.17609,-0.15546,-0.15548,0.048561,0.20158,-0.23201,-0.18097,0.22709,0.023035,-0.0535,0.048487,-0.002503,0.15059,0.25262,0.12513,-0.38498,-0.43604,-0.23205,0.15051,-0.053495,0.12502,-0.13002,0.099534,0.25263,0.48219,0.45667,0.048585,-0.64015,-0.71668,-0.38509,0.43115,0.68622,-0.15549,-0.28304,-0.027993,0.3036,-0.10446,-0.30854,0.27809,0.53315,-0.2065,-0.35957,-0.23203,0.2016,-0.053433,0.099564,0.048555,-0.20653,-0.23201,0.09954,0.4056,0.35464,0.15059,-0.79317,-0.38508,0.32914,0.58422,-0.002443,-0.53809,-0.20655,0.15049,-0.10452,-0.10446,-0.053495,-0.25751,0.20162,0.73728,0.35464,0.17605,0.048555,-0.15553,-0.46161,-0.12998,-0.25753,-0.002454,-0.078984,-0.078996,0.074075,-0.13001,-0.30858,-0.18106,0.35459,0.71179,0.63526,0.074087,-0.48709,-0.69118,-0.6657,-0.56367,-0.18101,0.83931,1.0178,0.12512,-0.41058,-0.51261,-0.4361,-0.181,0.15056,0.22706,0.30356,0.074062,0.20159,0.15059,0.074062,-0.053464,-0.002467,-0.18099,-0.18101,-0.38506,-0.13001,0.20158,0.6352,0.35465,0.074087,-0.38506,-0.56362,-0.33407,-0.20653,-0.10449,0.17608,0.023047,0.32909,0.12505,-0.00243,0.89032,0.38016,-0.51259,-0.61461,-0.33404,-0.053495,0.073989,-0.07899,0.04858,0.074062,0.048543,-0.053482,0.12509,0.2016,0.66071,0.27811,-0.13001,-0.48708,-0.53812,-0.43613,-0.15551,-0.002418,-0.078977,0.048555,-0.002467,-0.002467,0.48211,0.2526,0.25264
