-0.053488,-0.12998,-0.12998,-0.027956,0.17608,0.12507,0.023035,0.074044,-0.02798,-0.18101,-0.078984,-0.027974,0.15059,-0.028005,0.22708,0.09957,0.22709,0.30361,0.22706,-0.84412,-0.078972,0.15059,-0.002443,0.048518,-0.46155,0.048543,-0.35963,-0.28303,0.35465,0.45664,-0.027998,0.22704,-0.0535,-0.15544,-0.436,0.73725,-0.18101,0.48211,-0.33408,0.30367,0.30364,-0.71659,-0.66561,-0.61468,-0.18103,0.96674,1.0433,-0.028029,-0.94622,-0.58903,1.4005,0.86479,-0.97186,-0.41069,-0.51254,-0.05339,-0.12968,3.2109,0.91555,-1.1757,-0.6658,-2.2214,-2.3742,-2.2212,0.81383,2.3439,2.1399,0.58413,0.5074,-0.58899,0.45677,-0.56361,-7.0156,5.3783,7.2655,-1.6345,-3.3687,-0.30834,-1.099,-2.145,1.7064,6.7556,0.5587,-6.6075,-4.9755,1.8079,7.1379,1.0177,-0.66531,-0.81843,-4.3122,0.8646,2.4457,-0.69093,0.78794,-1.0735,-1.6345,-1.1501,-0.027925,-0.61468,0.839,2.1144,2.3948,1.2726,4.3327,-0.84422,-3.6238,-3.8023,-2.68,-0.69121,0.45649,-1.9915,4.7922,1.9613,0.86466,0.58402,-0.92062,-0.5379,-0.538,-1.1503,0.074106,-0.41047,-0.35945,-0.25758,0.86467,0.22719,-0.74198,2.1142,1.2214,-1.3033,-1.6857,0.86489,0.73725,-0.51264,-0.53821,-0.51243,0.023145,-0.58894,-1.0992,0.53317,-0.053592,-0.58927,0.81362,1.8595,0.76283,0.32907,-1.1758,-0.35954,0.30355,0.12494,-0.58906,-0.027871,-0.63998,-0.46143,-0.94619,0.40553,1.1452,1.7827,0.22716,-1.2012,-0.078843,-0.46148,-0.56366,0.15062,0.78824,-0.53812,-0.20658,0.4056,-0.38503,-0.20657,0.15051,0.66082,0.43123,0.2526,-0.02809,-0.028066,0.38019,-0.94612,-0.97171,-0.10443,0.3546,-0.30858,0.12505,-0.15557,1.2982,1.732,0.099564,0.30371,-1.5074,-1.5838,-1.762,-0.078763,1.2215,2.9303,-0.028011,-1.5839,0.68631,0.66067,0.25264,-1.2266,-1.2266,-1.7113,0.0485,0.27813,1.1199,1.0433,-0.41071,0.91571,0.12505,-0.56373,-0.28312,0.32905,-0.38495,-0.41044,0.099595,-0.25756,-0.30844,0.099588,0.83921,0.32907,-0.12996,0.099473,-0.002619,0.91565,-0.41047,-1.6858,-1.3286,2.395,1.8341,-1.0992,-0.15551,-1.2268,0.40549,1.0687,0.30358,-0.33391,-1.1757,-0.12995,0.50753,0.099534,0.023065,0.71171,-0.38505,0.30356,-0.20646,-1.0482,0.20155,0.35459,0.45663,0.074087,0.55859,-1.0736,-1.0482,-0.027944,0.60963,-0.002552,1.1452,-0.51255,0.048818,-1.099,1.3235,0.9155,0.17598,-1.4817,-0.2064,-1.4051,0.50757,0.58427,-0.002461,-0.35949,0.22704,-0.078972,-0.41061,-0.027993,1.5789,0.83921,-0.053531,-0.33413,0.38006,-0.58911,-0.35953,-0.61453,-0.07891,0.89021,-0.89513,0.58409,0.71167,-0.18091,-0.20644,-0.99713,-0.61459,0.37998,1.6807,-0.6399,0.48203,-0.1045,-1.15,-0.23191,-0.9971,1.7571,0.91562,-0.002277,0.074136,-0.43606,-0.15553,-1.2777,-1.0226,0.78816,-0.079014,-0.078935,-0.66562,-0.053573,0.53297,0.63504,-0.43606,-0.56357,0.35462,0.96689,0.1251,-0.28298,0.45659,-0.28308,-0.41051,0.1506,-0.38497,-0.9206,-0.74204,0.25265,-0.07899,0.78801,0.32893,-0.18098,0.12516,-0.35948,-0.3851,0.27799,0.63518,1.1709,1.0688,0.35448,-0.18097,-1.0991,-1.6857,-0.20661,1.4257,0.048634,0.073995,0.68619,-0.23196,0.50744,-0.053495,-0.46145,-0.35942,0.15051,-1.3543,-0.69097,1.3239,1.1199,0.3545,0.17602,-0.10461,-0.66558,-1.3033,0.17605,0.71162,-0.46143,0.02295,0.48212,0.50766,-0.18101,-0.33396,0.45657,0.099497,-0.76756,-0.89502,-0.18086,-0.18098,0.71163,-0.51252,0.17614,1.1452,0.60941,0.32904,-0.76763,-0.99702,0.50762,0.32907,-1.2776,-0.23188,0.073965,0.88992,0.3801,-0.79304,-0.35941,-0.23199,0.66069,0.30363,-0.46168,0.81374,0.55865,0.32919,-0.79315,0.30359,-0.10447,-0.48695,0.71154,0.83908,0.09954,-0.64003,-0.64011,-0.053495,-0.48706,-1.4818,0.22723,0.43131,1.4003,0.58419,0.2524,0.73706,0.15071,0.12529,-0.97162,-0.56366,-1.5585,-0.079045,0.45663,0.32912,0.76276,0.3801,-0.81876,0.45661,1.2728,-0.84416,-0.30847,0.4311,-0.3085,0.12505,-0.92054,-0.23207,-0.18094,0.048659,1.0942,1.1196,-0.99716,-0.76756,-0.56353,-0.23194,-0.38503,0.38005,0.53308,-1.0227,1.3493,0.81385,0.12501,0.32907,-0.002552,0.073855,0.3801,-0.94622,-0.81839,-0.79304,0.63509,-0.15549,0.099613,0.48206,-0.89523,-0.12982,1.6045,-0.027969,0.6606,-0.84415,-1.2267,0.38008,-0.079002,0.48204,-0.232,-0.002448,-0.61455,-1.6603,1.2728,0.71175,0.58412,-0.18105,1.1452,1.4258,1.0433,-0.86963,-2.6805,-0.7164,0.8648,-0.002595,0.20152,0.32907,0.66052,-1.3542,0.40372,0.53123,0.1742,-0.53984,-0.18282,-0.64002,-0.15537,-0.89512,0.86463,0.91558,0.76266,0.40562,0.17614,0.099668,-0.56361,-0.30857,0.68617,0.63513,1.0432,-1.1247,-0.46164,-0.028066,0.66077,0.074185,0.32917,-0.41053,-0.56353,-0.8187,0.58408,0.48207,0.17609,-0.15553,-0.38498,0.38008,-0.15551,0.58414,0.68612,0.023096,-1.1756,-0.15551,0.91583,0.81379,-0.64007,-0.58915,0.38005,-0.51271,0.30356,0.68617,-0.86968,-0.69107,0.7118,2.1402,-0.7167,-0.053476,0.30346,-0.46163,-0.84412,0.43101,0.20157,-0.48696,-0.8696,0.074111,-1.609,2.4202,1.8083,0.63524,0.99236,-0.69111,-1.4816,-1.2011,-2.0682,-0.20658,0.45653,0.35456,0.89012,1.145,-0.41061,-0.10446,0.58432,-0.61447,-0.28303,-0.002399,-0.20654,-0.76771,0.58417,0.12504,-0.23198,-0.41059,0.048402,1.0687,1.5023,-0.86961,-1.3542,-0.92056,-0.436,-0.99716,1.069,-0.002448,0.68602,1.4001,-0.61458,-0.94609,-0.35949,0.2016,0.12507,-0.13,-0.25757,-0.53803,-0.20652,0.76263,0.43108,0.53316,0.22712,-0.25751,-0.84414,0.17609,-0.15544,-0.23204,-0.20662,0.71158,0.27808,-0.92067,-0.028023,0.81369,-0.35943,-0.46139,-0.053446,-0.002461,0.1506,-0.079039,0.048616,0.12503,0.048469,0.686,0.22699,-0.48705,-0.66551,-0.94604,0.43123,1.1707,-0.027993,0.38,-0.18108,-0.69107,0.048751,-0.1044,-0.41051,-0.12992,-0.41052,0.482,0.12496,0.022937,-0.20642,0.1506,0.074075,-0.5379,0.78809,1.2217,-0.20661,-0.078923,-0.23208,0.20152,-0.027969,-0.38494,-1.7366,-0.71653,0.6096,0.074075,-0.46157,0.38005,0.25249,0.32914,1.4513,0.71151,0.43115,-1.1755,-0.99712,0.25254,0.15049,0.60967,0.45652,0.048415,-0.25747,-1.0736,-0.89497,0.20155,-0.078966,0.48214,0.48206,-0.1301,-0.053329,0.86469,-0.41056,-0.20645,0.17605,0.073953,-0.41058,-0.61465,0.074002,0.32915,-0.12997,-0.23199,0.55869,0.25264,-0.2575,-2.1447,1.2727,1.4257,0.099406,-0.97171,-0.71656,-0.3339,-0.589,-0.25748,1.5022,0.71149,0.58427,-0.41047,-0.20643,-0.41058,-0.23203,-0.41057,0.43117,0.45659,0.78806,-0.33404,-0.69101,-0.33397,-0.232,-0.15555,0.074038,-0.15554,0.25272,0.3802,-0.41053,0.68604,0.35459,0.15054,-0.28306,-0.15556,0.1252,0.023114,-0.25756,-0.64001,0.71169,-0.078996,-0.053378,-0.10439,-0.053519,0.073898,-0.35954,0.074051,0.43122,-0.33401,-0.30851,-0.28297,0.50768,-0.38495,0.55852,0.12489,0.43124,-0.81872,0.50761,-0.20647,-0.28302,-0.89522,0.17605,0.27814,0.20163,0.2016,-0.48705,-0.33402,-0.12994,0.53315,1.0176,0.27801,-0.56353,-1.6347,0.8137,0.99226,0.43111,0.22702,-0.7676,-0.99708,-0.30844,0.30352,0.35463,-0.20641,0.15062,0.17606,-0.35964,0.073989,0.15049,-0.30855,0.81373,0.71168,0.17595,0.048634,-0.76755,-0.74206,-0.4105,-0.002467,0.73712,0.83911,0.76263,-0.10457,-0.56353,-0.56344,-0.71648,-0.43597,0.73712,1.0941,0.022925,-0.23192,-0.53798,-0.13003,0.048531,-0.18105,0.43113,0.20153,0.176,-0.027962,-0.30851,0.6862,-0.41047,0.17606,0.099473,-1.1756,0.71153,0.73717,0.023047,-0.81839,0.58421,0.40557,-0.74212,-0.25752,-0.46154,0.35461,0.55857,0.074087,-0.6401,-0.25748,-0.33393,0.58412,0.63502,0.45659,0.074204,0.25262,-0.1555,-0.30862,0.20155,0.32909,-0.4615,-1.0226,-0.64012,0.83922,0.71156,-0.23196,0.17612,-0.078923,-1.1755,1.2727,1.4765,-0.76762,0.099534,0.66072,-0.30846,-0.43599,-0.7675,-1.354,-0.69107,1.5276,0.50757,-0.18103,-0.053519,-0.002479,0.15052,-0.18094,0.38002,0.5841,-1.2775,1.5786,0.737,-1.1501,-0.58898,-0.002448,-0.10444,0.04858,0.17607,-0.41049,-0.56353,-1.2011,-0.23199,0.38003,0.96655,-1.7109,4.6899,1.6041,-0.69115,-1.1757,-2.0174,0.27827,0.66083,-0.30845,-1.5837,-0.43596,0.40561,0.38004,0.58393,0.86453,0.94116,-0.33393,-0.3595,-1.15,-1.2775,0.023059,0.45647,0.6096,0.25257,-0.027987,0.20164,0.27812,-0.20652,-0.69105,0.022901,-0.58903,0.9666,1.2471,0.78817,0.25259,-0.23201,-0.84401,-0.2065,-0.487,-0.00232,-0.41058,-0.51258,0.50762,0.89023,-0.05347,-1.3031,-0.51248,1.2472,0.43098,0.15055,-0.053525,-0.10458,0.074033,1.0178,-0.46144,-0.84412,-0.20646,0.5076,0.15068,1.8081,1.6296,-1.0226,-1.5071,-1.2266,-0.20637,0.83914,0.15057,-0.76755,0.17607,0.32904,0.40549,0.60968,0.17609,-0.35952,-0.20655,0.43104,0.40547,-0.41057,0.55872,0.17617,-0.51251,-0.81857,0.048555,-0.58909,0.048427,0.45671,0.2272,-0.28302,0.07394,0.38006,0.15048,-0.51252,-0.71656,0.20159,0.25256,0.89029,0.60959,-0.028066,-0.46156,-0.10447,0.30356,0.1506,-0.66559,-0.20646,0.20172,0.09957,-0.69113,0.89005,-0.3596,0.048561,0.17606,-0.053488,-0.436,0.15068,0.20163,-0.61459,-1.0227,0.43098,0.71168,1.6042,-0.20663,-0.28296,-0.28287,-0.56346,-1.0991,-0.35952,-0.38504,1.5277,0.099577,-1.0991,0.53295,1.2472,0.94122,0.15045,-0.35947,0.1253,-1.2011,-0.81862,-0.89516,-0.1301,0.099534,0.43113,0.68612,-0.12992,-0.28305,0.30356,0.22707,-0.18102,-0.43604,-0.38494,-0.25748,0.60967,0.81358,-0.13001,-0.078972,-0.43601,0.48209,1.1451,-0.41055,-0.43604,0.55871,-0.46156,0.17607,-0.43599,-0.1554,-1.099,-0.002588,0.048598,2.1398,0.83924,-0.51257,-0.92063,0.17603,0.30351,-0.5125,-0.10443,0.023047,0.073965,0.02301,0.17607,0.074106,-0.28297,-0.053402,0.27812,0.68617,0.074038,-0.25752,-0.99716,0.7881,0.22697,0.38011,-0.86953,-0.28298,-0.48701,-0.69106,0.2526,0.22705,-0.05364,-0.1044,0.17617,-0.66553,0.30346,0.278,0.3546,0.22701,0.3036,-0.053537,-0.74213,-0.94604,-0.10433,0.20163,0.37999,0.60959,0.50755,-0.232,-0.43596,-0.20644,0.074002,0.63515,-0.23194,-0.5635,-0.385,-0.13003,0.22704,0.48212,0.40552,0.55852,-0.18112,-0.12996,-0.5125,-0.18079,1.0688,-0.078733,-0.56363,-0.20668,1.0685,0.71161,0.48211,-0.43601,-0.71648,-1.0481,-0.844,-0.078868,0.55862,0.78811,-0.15548,-0.002601,-0.46163,1.1707,0.30359,-0.35947,0.30353,0.099491,-0.053433,-0.79297,-0.94603,-0.487,0.074051,0.12503,0.022961,0.17609,0.68608,0.55861,0.50758,-0.18099,0.20155,0.45669,-0.23202,-0.61452,-0.86961,-0.18106,0.66067,0.30355,-0.28307,-0.15551,-0.20642,-0.48685,0.73723,0.2271,-0.10458,-0.23221,0.86463,1.3748,0.7628,-0.56351,-1.7623,-1.3796,-0.41053,1.2982,-0.4615,-0.61455,-0.12993,1.1707,0.30357,1.1197,0.074038,-0.078953,-0.28311,0.023114,-0.027944,0.3036,-0.76761,-0.078874,-0.41049,-0.079093,0.27803,0.55862,0.22707,-0.94606,-0.9205,0.30366,0.022943,0.81353,0.83915,0.50762,-0.18094,-0.89513,-0.69107,-0.078623,1.2981,0.35444,-0.5635,-2.0175,0.1761,0.66087,1.5022,0.50745,-1.0228,-0.56356,-0.18094,-0.99716,0.27806,1.3493,0.43123,-0.56352,-0.81861,0.4056,0.71146,-0.33402,-0.53788,-0.25751,0.63507,1.0175,-0.25759,-0.079002,0.25264,-1.1502,-0.1298,-0.38495,-0.48702,1.8337,1.0431,-0.15549,-0.79307,-1.4563,-0.232,0.2526,0.048585,0.71161,1.6298,-0.30841,0.32909,-0.71663,-0.51261,0.2781,0.63524,0.40569,-0.53809,-0.15554,-0.053568,-0.20659,-0.078879,-0.81851,-0.63994,0.45663,-0.18105,-0.028176,0.48194,0.71167,0.78837,0.4312,0.02301,0.45661,-1.0227,-0.35963,-0.793,-1.2519,0.32906,1.5022,0.27806,-1.6601,0.40554,-0.69104,0.86462,0.48221,-0.6656,-0.027956,-0.69116,0.15052,1.4514,-0.053519,-1.0226,-1.0737,1.2216,0.89019,0.074167,-0.64008,-0.56349,-1.8898,0.40559,1.7318,0.55867,-0.181,-0.86955,1.1961,0.048396,-3.2412,-2.0682,0.99223,0.53304,3.0832,4.282,0.3546,-1.6347,-1.9661,-1.456,0.099521,0.04842,0.30358,1.0432,-0.69077,-0.2831,-0.23213,0.022992,-0.61458,1.6042,1.2981,0.25262,-0.89504,-0.487,0.76263,-0.15541,-1.558,-0.89505,-0.15559,0.76264,1.0176,0.99207,0.12505,0.27809,0.074013,-0.51254,-0.20653,-1.201,-0.46142,0.30363,-0.25754,0.50754,-0.078928,0.3291,0.12501,-1.2266,0.60954,0.022998,0.71173,0.2016,-1.3543,0.20163,0.17616,-0.20653,-0.053506,0.38001,-0.53812,-0.81861,2.1398,-0.71647,-0.7673,0.32914,0.20144,0.17604,0.81368,0.12507,-0.71643,-0.56355,1.0941,0.15035,-0.94609,0.0485,0.55856,-0.89497,-0.71638,0.43117,0.55857,0.48204,-0.30863,0.60971,1.2727,-0.25759,-0.74223,-0.46159,-0.94598,-0.33393,0.074111,-0.25741,-0.92073,1.0432,1.3238,0.81356,-0.33405,-0.10453,-0.58913,0.48222,-0.48693,-0.23193,-0.53807,0.32895,0.1759,0.45655,0.30355,1.2729,-0.86946,-0.7931,-0.30856,-0.10447,-0.48707,-0.18099,-0.12991,-0.12997,0.76251,1.6807,0.91559,-0.12993,-0.66554,-0.69087,-1.1501,-0.23197,0.5586,-0.53803,1.0432,1.6553,-0.4107,-1.2778,-0.71662,-0.30854,0.25262,-0.002454,0.048561,-0.15544,0.099637,0.12506,-0.053409,-0.027901,-0.002461,0.022937,0.45658,1.5024,1.0432,-0.46169,-0.94622,-0.76746,-0.38499,-0.20654,-0.41046,-0.23198,0.48214,0.53309,0.099528,0.17607,0.25262,0.53315,0.3036,-0.1555,-0.6402,-0.25753,-0.48699,0.17602,0.20157,0.50764,-0.20642,-1.1502,-0.23196,-0.053415,0.38001,1.3237,0.83915,0.099473,-0.2575,-0.46154,-0.12995,-0.38505,-0.4615,0.48228,-0.078892,-0.23208,0.53321,-0.56361,0.1759,0.50751,-0.12993,0.048634,0.40565,0.94106,-1.1502,-1.7112,-0.66558,1.2982,-0.10436,-0.94606,-0.43602,-0.2066,1.5023,1.7574,0.83911,-0.51254,-0.76764,-0.6146,-0.23195,-0.053519,-0.20655,0.074185,-0.51249,-0.64,0.73728,0.048415,-0.33418,1.1962,1.5533,-0.00243,-1.4563,-0.92048,0.25259,-0.23212,0.27803,0.8903,-0.079008,0.17609,-0.71659,-0.20646,-0.30854,-0.46154,-0.078953,0.074075,0.60975,0.27812,0.8646,-0.1046,0.45653,0.15049,-0.69107,-0.74196,0.3546,-0.35949,-0.74204,0.023103,0.099485,-0.283,0.099588,0.25259,0.53305,1.4001,-0.71657,-0.25742,-0.43602,0.45662,0.66068,-0.053446,-0.5635,-1.3542,1.0431,0.12502,-0.33401,-0.56362,1.0689,0.81362,-0.28316,-0.053537,-0.742,-0.33396,0.3035,0.68616,-0.69108,-0.002283,1.4768,-0.53805,-1.1758,-0.002497,0.43108,0.22706,-0.18099,-0.18091,0.25265,0.9668,0.66065,0.048451,-0.94622,-0.71657,-0.56362,0.074033,-0.5636,-0.23205,1.2219,1.0688,0.15054,-0.58905,-0.15553,-0.079021,0.20161,-0.053427,-0.20649,0.073946,0.43099,0.38014,-0.33395,-0.81855,0.15062,-0.25747,0.35459,0.55859,-0.43609,-0.51261,0.71155,0.99221,-0.38506,0.25266,0.048549,-0.46157,-0.35948,-0.79312,-0.18102,0.68619,0.91576,-0.10442,-0.13,-0.25758,-0.18111,-0.76776,0.074057,0.91582,0.38008,-0.3341,-0.078953,-0.38499,-0.385,0.27806,-0.002497,-0.58903,-0.41046,0.099583,0.27809,0.25249,0.35456,0.22705,0.48214,0.50767,-0.61446,-0.76764,-0.28301,-0.053482,-0.10456,0.482,-0.13007,0.48222,-0.027895,0.50773,-0.05336,-0.33405,-0.41057,-0.33405,-0.33406,-0.33409,0.63512,0.55869,-0.10447,0.023072,0.48214,0.40562,-0.61457,0.25262,-0.10453,-0.23215,-0.283,-0.002461,0.20159,0.15057,-0.23201,-0.1044,-0.23194,-0.002497,-0.05347,0.60969,0.32908,0.022986,-0.74214,-0.38506,1.1963,0.073917,0.71171,-0.43602,-0.84414,0.12499,-0.30841,-0.41047,-0.10455,0.91567,0.66065,-0.30856,-0.5126,-0.027871,0.12512,-0.20652,-0.33394,-0.76755,0.38013,0.68616,-0.15549,0.22704,0.35442,-1.2525,0.60976,1.1199,0.20153,-0.56362,-0.20646,-0.6145,-0.8696,-0.23202,-0.053519,0.32907,-0.3086,-0.2321,0.66074,0.8648,0.27815,-0.10447,-0.64016,0.25251,-0.48702,-0.33401,-0.02792,0.25252,-0.43613,0.30356,0.7628,-0.41051,-0.28301,0.048531,0.20155,0.45661,0.20164,-0.41057,-0.6656,-0.5891,0.83934,-0.10449,-0.51265,1.3746,-0.10461,-0.33387,0.55863,0.023084,-0.56353,0.048634,-0.12996,-0.61468,0.048543,0.53319,-0.35951,-0.18105,0.30352,0.58407,0.35456,0.09954,-0.61454,-0.81852,-0.51252,0.17609,1.0432,0.25254,0.048445,0.58422,-0.078886,-0.053476,-0.002394,-0.38503,0.12497,0.12505,-0.25753,-0.53804,-0.15548,-0.028018,0.278,-0.00251,-0.20639,0.81384,0.55868,0.022937,-0.23212,0.20156,-0.15549,-0.15549,0.099657,-0.33401,-0.10447,-0.15543,-0.25753,-0.15558,0.30353,-0.61455,-0.94615,1.0942,-0.12999,0.81381,0.12505,0.12502,0.35461,-0.33409,-0.079002,-0.46154,0.074013,-0.66552,-0.51249,1.2219,0.07416,-0.078953,-0.46153,0.25242,0.12501,0.17603,-0.10458,-0.30855,-0.38503,0.55871,-0.027944,-0.15552,-0.46149,-0.18098,0.35454,-0.3597,0.9158,0.99237,0.048567,-0.28312,-0.76768,-0.02792,0.25262,-0.58908,-0.46156,-0.33401,-0.56354,-1.5839,0.96671,1.7828,0.76258,-0.69111,-0.6911,-0.43607,-0.078972,0.074051,0.78827,0.78821,0.048555,-0.12997,-0.58907,-1.0227,0.20157,0.58415,-0.28307,-0.30851,0.20157,0.048536,-0.20652,0.25262,-0.10435,-0.20655,-0.028029,0.38003,-0.30855,0.35467,0.023047,0.55861,-0.28301,-0.25741,-0.25752,-0.10454,0.022992,0.02301,0.45662,0.86481,-0.74214,-0.23199,0.023103,-0.46155,-0.15548,0.50757,-0.28305,-0.25751,-0.07899,-0.13005,0.50757,0.023065,0.50763,0.023054,0.27814,-0.053372,-0.10445,-0.33401,-0.28308,0.3035,0.17609,-0.18095,-0.15545,-0.10452,-0.053451,0.9413,0.099515,-0.25754,-0.00254,0.45663,0.048536,-0.81859,-0.30841,-0.28294,0.2271,0.55857,1.4001,-0.13013,-0.53804,-0.38497,-0.12996,-0.002479,0.1506,0.63526,0.53321,0.074026,-0.13002,-0.48711,-0.25755,-0.89523,0.66067,0.48219,0.73726,0.32908,-0.61457,-0.69111,-0.18103,-0.13005,-0.41054,-0.053458,-0.078959,0.86469,0.20158,-0.25753,-0.053451,0.099601,-0.20651,0.074062,0.12504,0.25248,0.20153,-0.053348,0.22711,-0.43602,-0.35959,-0.51263,0.09965,0.43117,0.023047,0.15058,-0.33407,0.45661,0.09954,-0.5381,-0.38503,0.25261,-0.23205,0.58408,0.22706,-0.027944,0.20164,0.12514,-0.48709,-0.002491,1.0945,-0.53805,-0.58921,0.8647,1.1961,-0.33407,-0.84405,-0.18101,0.20152,-0.10444,-1.3287,-0.027791,0.53326,0.022968,-0.028072,0.76261,0.37998,0.099491,0.38009,0.20171,-0.28291,-1.1757,-0.43604,0.27811,-0.58918,0.40558,0.50764,-0.28298,-0.20652,-0.10447,-0.25753,-0.20659,0.22708,0.73717,0.15053,-0.13004,0.12509,0.32917,0.15062,-0.64001,-1.2267,0.023065,0.45666,-0.10444,0.71168,0.48199,-0.079167,-0.35954,0.048647,-1.1503,-0.48706,0.5332,0.40567,-0.33399,-1.0482,-0.35948,-0.30852,0.048476,1.4003,0.53315,0.48201,-0.41058,-0.15541,-0.18094,-0.35954,-0.69109,-0.12994,0.45664,-0.20644,-0.28302,0.4566,0.27788,-0.69116,0.78835,0.78825,0.048616,-0.58901,-1.3798,-0.69126,0.43104,1.7065,0.91581,-0.64018,-0.74218,-0.89521,-0.38503,-0.48688,-0.20633,0.76262,1.043,0.32909,-0.027895,-0.28298,0.023065,-0.20651,-0.10444,-0.18097,-0.35948,-0.43606,0.09951,1.0432,0.76254,0.60973,-0.76756,-0.18095,-0.35953,-0.027925,-0.61463,-0.10455,0.3547,0.20155,0.048561,0.35461,-0.30848,-0.51257,-0.25754,-0.69126,0.66073,0.60976,0.55869,-0.25761,0.099497,0.8392,-0.35951,-0.25749,-0.027944,-0.15547,0.15055,-0.43607,0.2781,0.68624,-0.25753,-1.1756,-0.30852,1.1961,0.86454,-0.35939,-2.7827,1.0434,1.3495,1.1964,-0.48708,-1.0993,0.048543,0.25243,-0.6403,0.12504,-0.56348,-0.23191,0.40573,0.048573,-0.38506,-0.00243,0.71154,1.0943,0.20142,-0.74214,0.099608,-0.35946,-0.487,-0.56354,-0.002443,0.50755,0.15057,0.02301,0.48208,-0.13,-0.20645,-0.99716,0.89027,0.4056,0.099497,-0.48709,-0.15549,0.58421,-0.53812,0.023096,0.58427,0.12498,-0.7166,0.12503,0.76265,0.048536,-0.28295,-0.18105,-0.43607,0.023023,-0.20652,-0.33405,0.17611,0.8392,0.12503,-0.46148,-0.28303,-0.002485,0.60966,0.76269,0.15051,-0.15556,0.17606,-0.25748,-1.3542,-0.69115,0.78816,1.0177,0.04861,-0.25755,0.40563,-0.46157,-0.35956,-0.58911,0.60962,1.1196,-0.23202,0.022845,0.38018,-0.97157,-0.18081,-0.20642,-1.1246,-0.79301,-0.25751,0.048536,0.482,0.38002,0.68606,0.32902,0.53316,0.50764,-0.56348,-0.053323,-0.38497,-0.02809,-0.18111,0.15055,0.04858,-0.28295,-0.43607,-0.053488,-0.027956,-0.8442,0.43126,-0.10449,0.099491,0.86475,0.12505,0.329,0.55857,-0.48714,-0.48695,-0.64002,-0.74211,-0.23192,0.12518,0.8903,1.1196,-0.25769,-0.053525,-0.028005,-0.20646,-0.28298,-0.79312,-0.12988,-0.23196,0.81368,-0.028018,-0.4361,0.50757,0.83908,0.35448,-0.18101,-1.4818,-0.53785,-0.078763,0.25272,0.35456,0.48211,-0.2066,-0.56364,0.30357,0.45664,0.25245,0.25254,0.17608,0.43117,-0.053506,-0.69117,-0.69107,-0.15544,0.55864,1.2474,-0.18101,-0.15548,-0.30857,-0.30861,-0.56359,-0.71668,0.3293,0.27826,-0.10456,0.22701,-0.81876,1.3239,0.9922,0.25252,-0.15557,-0.38504,-0.30843,-0.76756,-0.71663,-0.20648,0.58414,1.2473,0.32909,0.40562,-0.35954,-0.10453,-0.20645,-0.053488,-0.92061,-0.41047,0.43116,0.048585,-0.10457,0.30347,0.15054,-0.078972,-0.18098,-0.002356,0.074155,-0.2576,0.2525,1.0177,0.63516,-0.33405,-0.027969,-0.48704,-0.43609,-0.46145,-0.23197,-0.41049,-0.12998,0.17601,0.25257,0.12505,-0.12999,0.7883,0.17604,-0.10453,0.2525,0.074033,0.45664,-0.002503,-0.15549,-0.20656,-0.027998,-0.76755,-1.3543,0.2782,0.25266,0.38028,1.0687,0.91561,-0.33413,-0.69111,-0.61463,0.45659,-0.10439,-0.56351,-0.23197,-0.30855,-0.15554,0.38003,0.76269,0.38006,0.22715,-0.56353,-0.25754,0.12509,0.048555,0.048531,0.48225,-0.61459,0.22711,0.50759,-0.028096,-0.25756,-0.02798,-0.97177,0.55867,-0.027993,-0.078947,0.27813,-0.25751,0.50768,-0.64007,0.15054,0.35464,0.12513,0.40561,-0.10448,-0.46154,-0.46155,-0.28305,0.30349,0.20145,0.2016,0.48225,-0.10443,-0.027907,-0.12996,-0.35954,-0.30852,0.17601,0.38,0.58413,0.17617,-0.20642,-0.56361,-0.00243,-0.00251,-0.1555,-0.053439,-0.28298,0.30361,0.66067,0.48205,-0.46153,-0.97171,0.25267,0.60968,-0.46159,-0.00243,0.15053,-0.74225,0.53309,0.15057,-0.35947,-0.23187,-0.23193,-0.41049,0.68607,1.1196,0.073995,-1.0227,-0.20648,-0.12989,0.27821,-0.12995,-0.23209,0.2015,0.099418,-0.41061,0.22713,0.25266,-0.38499,-0.64015,-0.2065,1.2218,0.83914,0.53321,0.25262,-0.66562,-0.84412,-0.81866,-1.3034,0.91578,0.91571,0.048518,0.48213,-0.33399,-0.12989,-0.48706,-0.002436,-0.41058,-0.20658,0.55867,0.40563,0.022961,0.17609,-0.12998,-0.002436,-0.51265,-0.33401,0.20158,-0.0535,0.58413,-0.20654,-0.027974,0.074044,-0.33406,0.32919,0.55877,0.048543,0.25263,-0.33408,-0.43609,-0.84414,-0.20637,0.17617,0.60963,0.86456,-1.0994,0.074173,1.0433,0.60962,-0.25751,-0.94627,0.048671,-0.38495,-0.48703,-0.18097,-0.20647,0.048518,-0.02798,0.73714,0.43099,0.86464,-0.079021,-0.002356,-0.053402,0.25263,0.20158,-0.58916,-0.5126,-0.15548,-0.078959,-0.078972,-0.028018,0.73722,-0.25753,0.20158,0.074136,0.20148,-0.30855,0.25262,-0.53808,-0.25746,-0.002461,-0.92076,0.32914,0.20153,0.78816,0.30363,-0.58905,-0.76761,0.38013,0.22702,-0.76771,0.048585,0.45667,0.60973,-0.027969,-0.2321,0.15056,0.27803,-0.33402,0.048616,-0.25745,-0.61451,-0.74211,-0.53807,1.1196,0.9922,0.25249,-0.25756,0.15062,-0.053451,-0.69111,0.074124,0.45672,-0.002356,-0.38507,-0.51265,-0.48709,1.1196,0.78797,0.68612,0.71182,-0.58893,-0.99708,-0.15542,-0.86967,-0.4615,-0.2575,-0.43614,0.58407,0.68609,0.50762,0.099632,-0.002363,0.30364,0.15049,-0.079045,-0.35956,-0.56358,-0.002503,0.25259,0.45668,-0.002418,-0.15545,0.38011,-0.56354,-0.66561,-0.4361,-0.10449,-0.48707,0.30355,1.2218,1.1452,1.5534,-1.2268,-1.4053,-0.053446,0.58415,0.4311,-0.23189,-0.84411,-0.79314,0.78827,0.17604,-0.28314,0.15056,0.71171,-0.69124,-1.0994,1.63,1.7831,0.48222,-0.81864,-0.94617,-2.1705,-1.1247,0.17617,1.1198,0.17594,0.71154,-0.10452,-1.8388,0.30364,0.099552,-0.46151,0.43119,0.20158,0.55861,0.43118,-0.48708,0.023041,0.32908,-1.6605,1.0434,0.60976,-1.1247,-0.4105,-0.43598,0.022992,0.15037,0.176,0.17614,0.66073,-0.079039,0.63518,-0.25751,-0.35956,0.40566,-0.23196,-0.33402,-0.25749,-1.1247,0.27813,0.50766,-0.4872,0.27804,0.5332,0.94133,0.15056,-0.81876,-0.6146,-0.053464,0.25258,-0.66564,-0.10439,0.55878,0.15061,-0.71666,-0.30853,0.38012,-0.2321,1.0943,0.30356,-0.64014,0.2016,-0.35956,-0.56367,0.55869,-0.18098,-0.53798,0.074057,-0.078984,-0.10439,0.12519,-1.1247,-0.027962,0.68615,0.66059,0.50744,-0.2576,0.20156,-0.027944,-0.15537,-0.53795,-0.35946,0.60968,0.96662,0.073984,-0.58907,-0.20645,-0.58904,-0.28302,-0.20649,1.5789,0.55859,0.07391,-1.3799,0.50775,0.53314,-0.48705,-0.43606,0.35473,-0.053397,-0.56349,-0.053464,-0.38507,-0.38514,0.048463,0.83914,0.50753,-0.20655,0.53328,-0.28298,0.048622,-0.10439,-0.46152,-0.078966,-0.079033,0.099534,0.40557,0.22701,-0.002516,0.35461,-0.51255,-0.25742,-1.2523,-0.18098,1.528,1.1708,-0.1556,-0.64018,-0.99718,-0.38506,0.35464,-0.38508,-0.48701,-0.13002,0.71163,0.6096,0.15057,0.048549,-0.25754,-0.10441,0.1762,0.20163,0.099521,-0.13,-0.51258,0.15054,0.48206,0.45652,0.48209,-0.81867,-1.5072,0.17627,0.25262,1.2729,0.43112,-0.51266,-0.79324,-0.5891,-0.12996,-0.30852,0.022968,0.38012,0.38014,0.15066,0.2781,0.35451,0.78808,0.89027,-0.48702,-0.4615,-0.053464,-0.1811,-0.5891,-0.6911,0.17614,-0.25753,0.4312,1.0432,0.048482,-0.41058,-0.43606,-1.3798,0.15066,0.94114,0.27793,0.17601,0.27814,-0.079033,0.35458,-0.18097,-0.38489,-0.078855,-0.51268,0.9412,0.81374,-0.56363,-0.81866,-0.15547,0.22713,-0.10456,-0.00254,-0.4616,-0.1555,0.58425,0.48214,-0.079033,-0.10445,-0.027907,0.20157,0.55854,-0.64016,-0.18089,-0.053366,-0.56357,-0.30851,0.27803,0.55848,0.25247,-0.00243,-0.07883,-1.0991,0.17626,0.81381,0.48205,0.48187,-0.48716,-0.027962,0.17607,-0.41057,-0.97161,-0.63997,1.1964,0.17606,0.022943,-0.7168,0.55867,0.25251,-0.30854,0.73733,0.66078,-0.35959,-0.46161,-0.64015,-0.053427,0.96668,0.20149,0.048567,-0.23205,0.048549,-0.053439,-0.48699,-0.41047,-0.35955,-0.027987,0.48219,0.53312,0.45655,0.43106,-0.97177,-0.078892,-0.18091,0.023084,0.048531,-0.18103,-0.53814,1.2218,-0.43613,0.78824,0.6862,-0.002467,-0.97164,-0.64007,-0.38503,-0.002558,-0.58918,0.99224,0.023108,-0.48702,-0.20649,-1.0992,0.27824,0.12514,1.4004,0.17595,1.1962,-0.84419,-0.10451,-0.028042,-1.0992,-0.66562,0.96685,-0.38505,0.78821,0.73715,-0.51265,0.074002,-0.51253,0.023047,-0.41051,-0.86958,0.48226,0.60981,0.099528,-1.737,1.0687,0.91572,-0.10456,-0.15551,-0.15548,0.15055,-1.3033,-0.66572,1.5025,0.55875,-0.56358,-0.002491,-0.53817,-0.97165,-0.81864,0.048536,-0.1046,1.0433,1.0434,-1.0228,0.32902,1.2984,1.2219,-0.43601,-0.51265,-0.66564,-0.97173,-0.64003,0.40559,0.76261,0.35454,-0.48701,-0.48699,-0.23203,-0.61463,0.023279,1.0943,0.35453,0.09951,0.30353,-0.71672,0.22702,0.43122,-0.35945,0.48222,0.48203,0.20146,-0.20646,-0.027907,-0.56363,-0.66564,-0.20648,-0.30846,-0.89512,-0.028023,0.60966,0.66066,0.20162,0.83925,1.3749,0.099412,-0.2321,-0.002454,-0.15549,-0.76752,-0.97157,-1.1757,-0.28291,-0.027895,1.2984,0.8391,-0.38525,-0.69127,0.53306,0.96681,0.40561,-0.53804,-0.38497,-0.33402,-0.30852,-1.1503,0.15051,2.1146,0.099552,-0.56355,-0.538,-0.58905,-0.33403,0.074106,0.27807,0.25236,0.89009,0.83936,-0.48707
-0.1045,-0.0535,0.074038,-0.07899,-0.027969,0.074057,-0.027962,0.023065,-0.078959,-0.053482,0.12504,0.023023,-0.13,0.023023,-0.002467,-0.02795,-0.002472,0.15058,-0.002423,-0.1045,0.048525,0.023029,-0.053476,0.074033,0.074062,-0.002461,-0.002472,0.1506,-0.002436,-0.002454,-0.027993,-0.20653,-0.18104,-0.027998,0.074038,0.048543,0.023054,0.12509,0.099601,0.1506,-0.23203,-0.23204,0.023041,0.074044,0.074057,-0.05347,-0.10448,-0.002461,0.023047,-0.027987,0.048531,0.023023,-0.10452,-0.079002,-0.002448,-0.002443,-0.027962,0.048555,0.12508,-0.07899,0.074038,0.023029,-0.15551,0.023041,-0.027969,0.048549,0.023047,-0.078959,0.023072,-0.002448,0.023017,-0.0535,0.12504,-0.002467,-0.02795,-0.078959,-0.027969,-0.027962,-0.002461,-0.002461,-0.002472,0.048543,0.023017,0.074033,0.074044,-0.20651,-0.10449,0.15059,-0.053446,0.023065,0.048543,-0.053495,-0.13002,-0.078996,-0.027974,-0.002472,0.074051,-0.002448,-0.027956,0.048543,0.048536,0.048536,0.074033,-0.002461,-0.078977,-0.027944,0.04858,-0.053464,-0.12999,-0.053476,-0.053495,-0.10451,0.048518,0.048525,0.074051,0.12507,-0.10448,-0.027938,0.099583,-0.002461,-0.002479,-0.027993,0.048512,0.074038,-0.10449,0.023035,0.074051,0.048549,0.099564,0.099564,0.074044,-0.002467,-0.053488,-0.053495,-0.02798,-0.05347,0.048561,0.12511,-0.25751,-0.10451,0.17605,0.17607,-0.02798,-0.1045,-0.002479,0.048549,0.099577,-0.078959,-0.12999,-0.002461,-0.053476,-0.053476,-0.002485,-0.0535,-0.078984,0.09957,-0.02795,-0.18098,-0.002448,0.074038,-0.002491,0.048536,-0.002467,0.023035,-0.027987,0.023035,0.048561,-0.053446,-0.002454,0.074038,0.099552,-0.07899,0.023023,-0.027987,0.074044,-0.002454,-0.05347,0.023072,0.023065,0.023041,-0.027974,-0.13002,-0.10451,0.023029,-0.027993,0.099559,0.12506,0.074075,0.023059,-0.10447,-0.078996,-0.15551,0.048543,0.15055,-0.25755,0.048543,0.074057,-0.027969,0.048555,-0.002479,0.023029,0.023017,-0.002479,-0.027974,0.074038,-0.078977,0.023047,0.023065,-0.002454,-0.002467,0.02301,0.02301,-0.02798,0.048531,-0.002461,0.09957,0.074062,-0.00243,0.048567,0.048543,0.023023,0.02301,0.02301,0.074044,-0.15549,-0.10449,0.09957,-0.027938,0.04858,-0.053464,-0.053495,-0.10451,-0.15553,-0.0535,0.099559,0.2526,-0.1555,-0.002443,0.023096,-0.002467,-0.027998,0.048536,-0.002491,0.023023,0.023041,0.074051,0.099552,0.12508,0.023059,-0.02795,0.048549,-0.027969,-0.078984,-0.027974,-0.027969,-0.078977,-0.053476,-0.002461,0.048555,-0.002461,0.023041,0.023047,-0.002479,-0.027993,-0.027993,-0.02798,0.074081,-0.053446,-0.078959,-0.10449,-0.027969,-0.002485,-0.027998,0.09954,-0.10449,-0.02795,0.074044,-0.002467,-0.002454,0.12506,-0.30851,-0.053446,-0.027993,0.02301,0.023047,0.20159,-0.25746,-0.028036,0.22704,0.20155,0.38014,-0.10438,-0.79309,-0.71664,-0.20655,0.40563,1.0688,0.58413,-0.33402,-0.61451,-0.41063,-0.79314,-0.15563,-0.027974,0.55859,0.7117,0.27814,-0.41052,-0.15551,0.17616,0.86483,0.35453,0.048487,-0.078947,-1.0737,-0.51254,-0.74203,-0.25743,0.60957,0.68604,0.37998,0.76268,0.15066,1.4001,-0.35975,-6.2506,-1.4816,3.8485,1.8849,0.63527,-2.1195,-0.51237,0.76282,2.7521,-0.69122,1.7313,-2.3489,4.9192,-4.8479,1.5022,2.4969,-6.7604,-2.4762,2.5477,1.7316,-0.94604,-5.205,1.5024,0.12514,-4.5418,14.304,9.3572,-1.5833,-12.218,4.3834,1.1189,-3.624,-2.8075,-1.5324,-1.6601,-3.7003,2.2164,4.0018,-1.0479,-4.1341,4.1285,-2.2213,4.741,3.0069,-0.58874,-0.53788,-1.2777,-0.56368,-3.7003,0.99199,1.0176,-1.711,-1.9405,-3.4706,1.1706,5.4549,1.8591,-0.38503,0.17608,-0.027938,-1.405,-0.51238,-1.0478,-3.2411,3.2107,0.99205,0.15054,0.53305,-0.61456,-3.5983,1.4255,1.2216,0.66077,1.094,-3.2157,-1.7367,0.53309,0.4565,0.5587,0.30356,0.66043,1.2725,0.73709,-1.4816,-0.43613,0.32943,1.2983,0.20169,-0.2065,-0.38505,-0.51268,-0.94633,-0.23197,-0.69093,0.78821,0.15054,0.30356,0.68606,-0.15565,0.25259,0.43116,0.32919,0.53324,-0.30857,-0.48709,-0.81863,-0.61452,0.12514,0.3546,-0.10456,-0.079014,0.20157,0.38014,-0.027956,-0.30852,0.074033,0.50761,-0.15559,-0.002485,-0.28289,-0.13003,0.27803,0.66076,-0.18092,-0.56359,-0.79309,-0.18112,0.43113,-0.64012,1.2727,1.0942,0.25256,-0.0535,-0.00235,-1.1501,-1.8388,0.22707,-0.69101,1.3493,0.4055,0.43108,0.60957,-1.0227,-0.027925,-0.53809,0.048585,-0.02792,0.55858,0.27804,0.40557,-0.92067,-0.79304,0.32908,-0.18098,0.12513,0.43111,-0.20656,0.07402,1.1198,0.099577,-0.71654,-0.10455,0.20143,0.71158,0.17614,-0.51249,-0.76756,-0.30845,-0.94612,-0.23199,1.0687,0.3545,0.91572,0.35474,-0.23187,-1.4561,0.73698,-0.10472,-0.053549,0.023023,0.22704,0.2781,-0.41057,-0.25743,-0.41047,-0.283,-0.25752,0.43111,-0.13005,0.71163,0.71159,1.4003,0.63517,-0.64001,-1.4815,-1.3031,-1.2777,-0.41053,-0.02806,0.30347,0.20157,0.6607,0.37996,0.89016,-0.12998,0.8136,0.60954,0.12488,-0.86955,-1.0225,-0.58899,-0.74211,0.074124,0.50764,-0.35957,0.25262,-0.33421,2.0122,0.22713,-0.56339,-0.94607,-0.51252,-0.2065,-1.0228,1.4004,0.63499,-0.20655,-0.13,0.048525,-0.41051,-0.20639,0.17601,-0.079014,-0.38494,-0.10439,0.074013,0.40549,0.63517,-0.48699,-0.15551,-0.94601,-0.00243,0.099608,-0.23203,-0.002461,0.45656,0.43098,1.6808,-0.4617,-0.61456,0.35465,-0.25743,-0.84403,-0.9971,-0.10445,0.71169,-0.078972,-0.30856,-0.25751,1.0432,0.96658,0.023047,-0.43604,0.12512,0.099491,-0.2575,-0.97164,-0.28281,0.023212,0.15057,0.43084,-0.18106,-0.002412,-0.58906,-0.053525,0.32901,0.81379,-0.10446,-0.94618,0.12508,-0.56338,2.2928,0.40544,-0.8441,-1.2776,-0.20638,0.22714,0.17604,-0.18096,-0.38505,-0.15554,0.58407,1.0687,-0.13004,-1.9406,-0.053421,1.7572,0.074087,-0.38508,-0.51253,0.2016,-0.053439,-0.38503,0.15051,0.76262,0.099577,0.023219,-0.33409,-0.33399,-0.28302,0.099479,0.43107,0.12494,-0.38505,-0.69111,0.12517,0.60975,0.38003,1.0432,-0.078972,-0.97155,-0.61449,-0.89502,0.50748,-0.079008,-0.25744,0.1506,0.45653,0.83912,0.35448,-0.48711,0.074155,-0.487,0.074271,-0.46134,0.4311,0.86446,0.17585,-0.66564,-0.46152,-0.51258,-0.079057,0.48211,-0.30856,1.6301,-0.027834,-0.18097,-0.74221,-0.053476,-0.41053,-0.002583,0.53311,0.12503,0.15069,-0.027907,-0.23207,0.12504,0.50761,-0.74218,0.17611,0.22701,-0.71661,-0.56349,0.22716,0.25262,-0.25757,0.17597,0.37998,0.12501,0.48208,-0.053482,0.38011,0.099552,0.15062,-0.79306,-0.3594,-0.078928,-1.3544,0.53313,0.94143,0.22713,0.1504,-0.23215,-0.69119,0.023023,0.6096,0.45659,0.12499,-0.15559,-0.58902,-0.38497,0.15059,0.074062,-0.61452,-0.23184,-0.078984,0.099552,0.839,0.68613,0.86469,0.12502,-0.35964,-0.48703,-0.58897,-0.20641,0.27806,-0.58903,-0.28303,0.45653,0.22707,0.023108,0.32911,-0.078959,0.048585,0.099564,-0.74215,-0.027987,0.86464,0.58407,-0.13009,-0.12996,-0.28299,-0.46153,-0.23194,-0.10434,-0.25773,1.1197,0.22713,0.0741,-0.079026,-0.002595,-0.4106,-0.84401,-0.078825,0.074093,-0.30854,-0.027993,0.2781,0.38005,0.73714,0.073989,-1.1502,-0.71646,0.048604,1.1453,0.35461,-0.28309,-0.28306,-0.13013,-0.43599,1.6552,-0.053629,-0.81849,-0.15531,0.43128,-0.028023,-0.028085,0.60957,-0.4615,-0.71649,-0.48703,0.15057,-1.0991,0.76276,0.83919,1.2981,0.27799,0.25243,-1.0482,-0.92056,0.50769,0.30364,-0.25753,0.099608,-0.385,-0.76761,-0.58901,0.17607,0.66057,0.12505,0.0485,0.27809,0.50766,-0.079051,-0.43602,0.17602,0.12508,0.099515,0.0485,0.12508,-0.61452,-0.53796,0.023096,0.63519,-0.05358,-0.41058,-0.15555,0.55864,-0.002485,0.17601,-0.053519,-0.18098,-1.201,0.45665,0.63514,0.25257,0.15056,-0.20653,-0.46161,0.048555,0.30364,-0.20657,0.099564,0.45661,0.35463,-0.078928,-0.71656,-0.66562,0.074057,0.9157,-0.15551,0.38003,-0.25761,-0.18094,-0.10443,-0.02792,-0.12998,0.45651,0.78807,-0.53806,-0.51247,-0.002387,0.25263,0.32913,-0.18102,0.27806,0.074026,-0.30851,-0.51257,-0.10445,-0.71647,1.0685,1.4512,0.91569,-1.0481,-1.0992,-0.8696,-0.61458,-0.25746,-0.66562,1.0433,0.96674,0.048604,-0.41053,0.22701,1.0431,0.48199,-0.61457,-0.58903,-0.53802,-0.38499,-0.48699,0.30364,-0.10444,-0.41051,0.12509,0.76257,0.66058,0.27804,-0.18103,-0.027931,-0.10452,-0.002472,-0.15542,-0.35942,-0.18093,-0.46156,-0.002528,0.27802,0.27808,0.048555,-0.053458,-0.51255,-0.41046,-0.12993,0.76266,0.58402,0.2015,-1.5582,0.60953,0.76266,0.71183,-0.84399,-0.64003,-0.1045,0.022931,-0.51255,-0.079002,-0.38508,0.30355,-0.053458,0.55858,0.66073,-0.385,-0.027944,0.89023,0.099552,-0.66561,-0.99713,-0.46154,0.55869,-0.002485,-0.002485,0.38014,-0.12997,-0.25754,0.022992,0.27797,0.12502,0.73723,0.048512,-0.86956,-0.35942,-0.41051,-0.002436,-0.15548,-0.76757,1.0176,0.55859,1.2982,0.68617,0.15044,-0.28309,-1.0991,-1.201,-1.0225,-0.23195,0.12504,0.15054,0.17606,0.40558,0.38001,0.60957,0.22707,0.55865,1.1197,-0.12999,-0.58911,-0.35954,-0.027944,-0.25744,-0.13003,-0.33406,-0.6655,-0.25741,-0.18091,0.78804,0.5332,-0.35957,-0.079051,0.15049,0.07402,0.074069,-0.38499,-1.8131,0.6096,1.0686,-0.10439,-0.385,0.27808,0.55853,0.99216,-0.1556,-0.28301,-0.18095,-0.283,0.38002,-0.002479,0.32907,-0.30854,-0.30839,-0.10435,-0.63999,-0.6145,0.074075,0.50759,0.43096,0.91555,0.43101,-0.6145,-0.61455,-0.61457,-0.58901,0.15068,0.4311,0.48201,0.30353,0.074044,-0.002503,0.048531,-0.15546,0.40579,-0.58898,-0.94605,-0.079045,0.43098,0.27798,-0.58913,-0.078996,-0.027871,1.0176,0.35454,0.12511,-0.81854,-0.79304,-0.69102,-0.53805,-0.9461,0.83912,1.3237,0.94108,0.50752,0.38013,-0.41043,-0.99704,-0.79303,0.20162,-0.23203,-0.15553,-0.1045,0.15056,-0.00251,-0.053525,0.40561,0.43118,-0.56341,0.68607,-0.30849,-0.99712,-0.18103,0.09951,0.8901,0.66058,-0.33403,0.074106,-0.30852,-0.3594,-0.53792,-0.35959,0.22697,0.022998,0.15059,0.22712,-0.20645,0.2526,0.099534,-0.079026,-0.23203,-0.28307,0.7371,0.2781,-0.84402,0.48203,0.94124,-0.43597,-0.385,-0.33404,-0.48706,-0.28305,0.048561,-0.28308,-0.41052,-0.053433,0.68615,0.27808,0.48206,0.40564,0.35458,-0.33404,-0.28297,-0.7421,-0.66558,0.17604,0.50762,0.58411,-0.13004,-0.30851,-0.33403,-0.23196,-0.58905,0.27813,0.50769,0.58422,0.022961,-0.28302,-0.10445,-0.18103,-0.25753,0.22704,0.02295,0.40555,-0.53799,0.074062,-0.002387,-0.078935,-0.48697,0.099454,0.099473,0.022986,0.074038,-0.10446,0.20163,-0.12996,-0.078923,0.30352,0.25262,-0.46157,0.074075,0.55863,-0.48717,-0.58906,-0.20639,0.25265,-0.20652,-0.13,0.048506,0.4566,0.17602,0.20152,0.53302,0.25251,-0.43598,-0.5124,0.68622,-0.15543,-0.10449,-0.079075,-0.10449,-0.053488,-0.12998,0.023059,-0.89504,-0.436,0.023103,0.38004,0.048415,0.63517,0.99212,-0.35949,-0.002601,0.048585,-0.3085,-0.51252,0.43122,0.12514,0.30356,-0.002497,-0.51255,-0.56362,-0.027998,0.12507,0.60968,0.17604,0.2016,-0.3085,-0.48706,0.2526,0.81362,0.0741,-0.64,-1.1245,0.30351,0.22704,-0.66556,-0.48708,0.68619,0.63513,-0.07899,-0.28311,0.4056,0.40557,0.074111,-0.38499,-0.23194,-0.41057,-0.18102,0.048512,-0.13001,-0.10439,-0.12991,0.32913,0.50752,-0.028042,-0.61459,0.68624,0.81368,0.022998,-0.13001,-0.28306,-0.2575,-0.30841,-0.46154,-0.38499,0.6606,0.25264,-0.46142,0.32898,0.81347,-0.35958,-0.18093,-0.18094,0.12507,-0.02798,0.63506,0.35466,-0.35951,-0.002448,-0.10447,-0.53802,-0.6911,-0.13005,1.1452,0.38011,-0.92058,0.17604,0.58417,-0.05347,-0.48703,0.048494,-0.028054,0.022974,0.50764,0.023023,-0.92048,0.02309,0.048525,0.074002,0.12496,-0.25747,0.023121,0.12505,0.15052,-0.078923,-0.002461,-0.43602,-0.25759,0.4311,0.50759,-0.18109,-0.43604,-0.002405,0.1506,0.023005,-0.23204,0.176,0.099717,0.25264,-0.64006,-0.25756,-0.10453,0.66062,0.60972,0.25254,-0.33401,-0.43602,-0.002497,-0.13002,-0.43607,0.17608,0.66064,-0.027969,-0.18101,0.12507,-0.00243,-0.35946,0.25261,-0.002461,-0.002472,-0.15549,-0.10454,-0.25754,-0.053513,0.48218,0.30368,-0.18096,-0.078984,0.22694,0.45652,-0.28303,-0.30852,-0.61451,-0.05336,0.30355,0.73719,-0.027969,0.099613,0.099608,-0.18101,-0.25754,-0.15549,0.073995,0.278,-0.10449,-0.41055,0.27815,0.074093,-0.53803,-0.002436,-0.02806,0.7116,-0.053415,-0.41049,-0.05347,-0.23197,-0.46151,-0.20652,0.45658,0.68611,0.55859,0.20155,0.09954,-0.66553,-0.4615,-0.053446,-0.13005,0.099461,0.099497,0.048622,0.023139,-0.18096,0.30365,0.27807,0.15055,-0.07899,-0.28309,0.83917,0.1506,-0.6911,-0.56358,0.15056,-0.079045,0.35462,0.35468,0.023065,-0.53811,-0.283,0.20153,0.89011,-0.002485,-0.33392,0.1506,-0.002443,-0.20647,-0.66558,-0.33402,0.099552,0.89015,0.71156,-0.23209,-0.71659,-0.35949,-0.12996,0.17612,0.32914,0.4566,0.35465,-0.078984,-0.23203,-0.61465,0.12509,-0.43607,0.66062,0.55864,-0.053415,-0.25751,-0.20652,-0.30851,-0.41049,0.22711,0.66053,0.074051,0.17612,-0.18098,-0.30848,0.12512,0.25252,0.12499,-0.30851,-0.078904,-0.79314,0.074062,0.63515,-0.053451,0.074026,-0.10449,0.68602,0.55862,-0.053378,-1.2013,0.09957,0.25271,0.099595,0.023059,0.27806,0.09954,-0.41056,-0.48703,-0.079026,0.074008,0.27799,0.099583,0.048604,0.0741,-0.053506,0.17611,0.6607,-0.10444,-0.71654,-0.46153,-0.079045,0.30353,0.32902,-0.20649,-0.25744,-0.28297,-0.15546,0.048396,0.73713,0.71164,-0.002436,-0.28297,-0.28297,-0.028018,-0.20647,-0.33398,-0.86963,-0.28302,0.27805,0.43104,-0.48704,0.48218,0.73724,0.099461,0.099503,-0.027895,-0.027962,-0.25751,-0.53804,-0.41054,0.022998,1.6553,0.63506,-0.079021,-0.58902,-1.5582,-0.10431,0.048598,0.3801,0.37996,-0.18101,-0.12997,-0.48705,0.38018,0.86459,-0.181,-0.15552,-0.13002,0.023023,0.048598,-0.58902,-0.20645,0.12504,0.12504,0.07402,0.2526,-0.02795,-0.48708,-0.10445,-0.002454,-0.002491,0.38011,0.53307,-0.002479,0.074081,-0.053439,-0.15547,-0.38499,-0.10448,0.38003,-0.28302,-0.12992,-0.13001,0.38007,0.27818,0.023047,-0.28309,0.099559,0.81364,-0.027969,-0.30848,-0.078972,-0.41059,-0.58908,0.099583,0.76266,0.35458,-0.38502,-0.41048,-0.51249,-0.15551,1.5787,0.48203,-0.30845,-0.33393,-0.2575,-0.053506,0.074081,-0.41044,-0.13003,-0.053629,-0.002565,0.17607,0.30365,-0.18094,0.048629,-0.002485,0.15053,0.17613,0.048592,-0.30855,0.09951,0.40561,-0.10449,-0.53793,0.58408,0.71154,-0.25761,-0.58908,-0.487,0.60969,0.25258,0.023047,-0.53802,0.27817,-0.74206,-0.12995,-0.15554,0.38007,1.0177,0.17608,0.32902,-0.10451,-1.0226,0.48205,0.38,0.50767,-0.89504,-0.51248,-0.23199,0.074002,0.12504,-0.66547,0.30354,-0.25752,0.53309,0.048592,0.5332,0.50756,-0.25762,0.68606,-1.048,0.15053,-0.81859,0.60957,0.09965,-1.099,-1.1502,0.02301,0.86456,0.83909,0.83923,-0.38481,-0.5125,-0.51255,-0.078984,-0.18121,0.55862,-0.053446,0.17608,0.27806,-0.18099,-0.12999,-0.12999,0.12505,0.32915,0.32912,-0.74205,-0.51265,-0.3341,0.43118,0.45662,0.023041,-0.028029,0.25254,-0.15548,-0.58896,-0.84402,-0.23193,0.176,1.0686,-0.13004,0.22711,0.35461,0.63523,-0.48702,-0.89518,0.12507,0.3801,-0.28309,0.25261,0.20158,0.38016,0.15052,-0.51263,0.15052,-0.23195,-0.30847,-0.48699,0.074075,-0.053464,0.35454,-0.20652,0.17612,-0.71643,1.4256,0.63514,-0.25754,-0.487,-0.13,-0.079014,0.32905,0.76266,0.3545,-0.92057,-0.38488,-0.10441,-0.23203,-0.71666,-0.23202,0.35465,0.94112,0.12496,0.023078,0.20163,0.074033,-0.30853,-0.18104,-0.078935,0.66074,-0.23202,-0.43616,0.02309,0.12514,-0.25751,-0.053531,-0.18103,0.022986,0.074026,-0.15556,-0.05336,-0.58905,0.40566,0.96667,0.25254,-0.56356,-0.283,-0.28301,-0.18098,-0.33404,0.7116,0.73715,0.58416,0.12499,0.43105,-0.385,-0.28297,-0.41046,-0.97158,-0.12993,0.048567,-0.18107,0.17602,0.60966,-0.027987,0.22702,-0.51254,0.048506,-0.46161,0.66059,0.25257,0.048641,-0.35946,0.099564,-0.12996,-0.23205,0.099515,-0.02798,-0.84418,-0.33393,0.68631,0.43112,-0.30854,-0.35957,-0.10452,0.32904,0.63511,0.17604,-0.078947,-0.48709,0.25254,0.30363,-0.20641,-0.46152,-0.23197,0.12505,-0.10452,-0.002448,-0.30851,0.074051,0.12504,0.40561,-0.053464,-0.027962,-0.002472,0.048487,0.15049,-0.027969,-0.027907,0.048561,-0.002443,-0.12997,-0.181,-0.02798,-0.2575,-0.18095,0.09954,0.17604,-0.12999,0.099521,-0.15558,0.6862,0.7372,-0.51248,0.20156,-0.23203,-0.18097,-0.20647,-0.20653,-0.53818,0.27808,-0.20646,0.15068,-0.33399,-0.283,-0.30846,0.4311,1.6552,0.30341,-0.99716,-0.078935,0.22714,-0.10439,-0.4615,-0.23194,-0.38499,0.22705,0.17595,0.3546,0.15057,-0.25747,-0.15546,-0.053495,0.30353,-0.20657,-0.18098,0.2527,0.27821,-0.33402,-0.58919,0.25253,0.86467,0.099552,-0.23198,-0.385,-0.33396,-0.28299,-0.027993,0.22699,0.48201,-0.1554,0.30365,0.32911,0.48203,-0.385,-0.10449,-0.28299,-0.25751,-0.10447,0.38006,-0.053586,-0.078972,-0.3594,0.3036,0.15053,0.2526,-0.18099,-0.41054,-0.00243,-0.10444,0.55853,0.15052,-0.15546,0.099534,-0.12995,-0.028005,-0.00251,0.38003,0.17606,-0.538,-0.35947,-0.18092,0.023084,-0.053451,0.3801,0.3291,-0.23205,-0.20652,0.48213,0.15046,-0.33405,-0.12999,0.17608,-0.028005,-0.23196,0.45664,-0.053476,-0.61461,-0.53791,-0.35946,0.38008,0.91553,0.30349,-0.078947,-0.18097,0.17614,-0.23195,-0.18097,-0.13004,0.27802,0.30357,0.53303,-0.078947,-0.053397,-0.12996,-0.079026,0.43112,0.68613,0.20161,-0.71657,-0.79307,-0.53803,0.023023,0.38003,0.27803,0.09957,-0.18096,0.12511,-0.20648,-0.23203,0.048463,0.66054,0.25251,-0.38502,-0.30847,0.22723,0.048641,-0.18097,-0.66565,0.22697,1.0687,0.35458,-0.10446,-0.58903,-0.41052,-0.35954,-0.20656,1.1453,0.58417,-0.51257,-0.56353,-0.58904,-0.38503,0.12508,0.43106,0.25261,0.43109,0.0485,0.074033,0.20159,-0.15553,-0.28303,0.40557,0.074038,-0.05347,0.023065,-0.02792,-0.48708,-0.5126,-0.35957,0.43116,0.5332,0.20154,0.099521,0.40567,-0.64006,-0.46148,-0.38505,0.22707,0.40555,0.63516,-0.027993,-0.12998,0.099491,0.20157,-0.078984,-0.002405,0.27813,-0.71654,-0.46154,0.22707,0.40554,-0.30854,-0.10444,-0.02798,-0.23195,0.023035,0.099552,-0.079026,0.02301,0.02309,0.35464,0.45658,0.73714,-0.33394,-0.74215,-0.053446,-0.002423,-0.30854,0.073928,-0.20657,0.45665,0.40565,0.20161,-0.66555,-0.41052,0.17611,0.45662,0.0485,-0.33404,-0.33406,-0.2065,-0.18096,0.12506,0.55857,0.17603,0.074013,-0.078977,-0.2575,-0.15546,-0.23202,-0.2065,-0.15548,-0.13005,0.20155,0.45666,-0.13,-0.053488,-0.10447,0.15055,-0.53817,-0.38509,-0.10447,0.53317,0.6606,-0.41056,-0.334,0.27814,-0.20649,-0.053506,-0.15551,-0.027974,-0.15551,0.35459,0.38015,0.3801,-0.25748,-0.33402,-0.10451,0.17607,-0.56358,-0.002374,0.40561,0.71153,-0.078984,-0.64006,-0.48709,0.20162,0.40563,-0.38505,-0.53811,-0.43614,0.58413,0.99221,-0.1555,0.55872,0.023121,-0.43606,-0.51262,0.27801,-0.38509,-0.002454,0.15061,-0.002418,-0.46154,0.32915,0.48214,0.78816,-0.028011,-0.2065,-0.33404,-0.35956,-0.38502,0.023041,-0.002443,0.20156,-0.12994,-0.23198,-0.28298,0.30358,0.38002,0.48205,-0.18104,-0.1299,0.2782,0.023096,-0.41058,-0.15559,0.25252,-0.002565,-0.3595,-0.28298,-0.027931,-0.20653,0.074075,0.63526,0.83928,0.48206,-0.53812,-0.4871,-0.30854,-0.23199,0.32903,0.60957,0.17606,-0.53798,-0.58902,-0.5381,0.68627,0.4312,0.86473,0.27795,-0.84416,-0.76767,-0.23198,0.35461,0.12504,-0.027974,0.074033,0.32906,0.48209,0.38005,-0.23199,-0.41057,0.22717,-0.027864,-0.10435,-0.69113,0.048543,0.2271,-0.053531,0.073977,0.15051,-0.002485,-0.078984,0.63515,0.35458,-0.23194,-0.61455,-0.12996,0.35456,0.099534,-0.20653,0.25261,-0.12994,-0.23195,-0.12996,0.25259,0.15049,0.45652,0.35451,-0.002467,-0.46154,0.048634,-0.002381,-0.35945,-0.46156,0.176,0.25252,0.30347,-0.053495,0.048598,-0.23195,0.43116,0.20161,-0.12999,-0.23199,-0.181,-0.35957,0.12503,0.30355,-0.002443,0.2781,0.15053,-0.002467,-0.078941,-0.46153,-0.10449,0.048531,-0.028005,-0.30854,0.50767,0.099608,-0.41051,-0.027987,0.25259,0.25255,-0.23201,-0.41055,-0.23197,0.22708,-0.079045,0.5076,0.30358,0.30366,-0.25746,-0.25746,-0.10447,-0.41058,-0.43612,0.27808,0.66064,0.099503,-0.30851,-0.053409,-0.12994,0.27812,0.43108,0.17603,-0.58908,0.074093,-0.25748,-0.38503,0.38001,0.22705,-0.078959,-0.18097,-0.28297,0.30353,0.40564,-0.25754,-0.33398,-0.25745,0.45664,0.20153,0.07402,0.074057,-0.35958,-0.35954,-0.002467,0.68624,0.38008,0.15052,-0.283,-0.56354,-0.33398,-0.15548,0.048549,0.30349,0.25255,0.3801,-0.30854,0.17612,-0.15544,-0.23193,-0.46154,-0.18097,0.40557,0.38003,-0.10458,0.17607,0.074075,0.15056,-0.23196,-0.23195,-0.25746,0.02301,-0.10448,-0.12996,-0.053506,-0.51265,0.35457,0.68619,0.48215,-0.35951,0.2526,0.50762,-0.25753,-0.61459,-0.61457,0.048555,0.048585,0.09957,-0.12994,-0.23198,-0.027925,-0.053482,0.27803,0.25245,-0.15549,0.048494,0.53315,0.30357,-0.002479,-0.89508,-0.41044,-0.23196,0.048525,-0.053544,-0.18101,-0.25752,-0.053476,0.63518,0.63508,-0.25754,-0.23205,1.0434,0.22716,-0.35957,-0.43607,-0.61463,-0.74213,-0.12996,-0.028018,0.17605,0.40565,0.38017,0.074062,0.22704,-0.0535,0.20149,0.43117,0.09957,-0.56349,-0.43606,-0.002461,0.048567,-0.12997,-0.20654,0.48212,0.15049,-0.002485,0.38015,-0.12998,-0.15553,0.048561,-0.10449,0.023029,0.023103,-0.2575,-0.48711,0.22704,0.43116,-0.12995,-0.18095,-0.18096,0.22704,0.40553,0.35454,0.023035,0.17601,-0.64004,-0.25743,-0.35952,-0.15554,0.40566,0.35465,-0.15554,-0.15548,-0.002436,0.83922,0.227,0.073989,-0.5381,-0.33399,0.048634,-0.28298,-0.13002,-0.181,0.15051,0.25254,-0.13003,0.074093,0.17617,0.43121,0.048616,-0.53805,-0.46162,0.40556,0.38003,-0.23207,-0.20647,-0.181,0.12507,-0.10443,0.27812,-0.25751,-0.053519,0.20159,-0.25754,-0.18095,0.048543,0.27809,-0.053592,0.27808,0.45661,0.17608,-0.25754,-0.41053,-0.64006,-0.35945,-0.25744,0.048518,-0.20653,0.099546,0.15058,0.58418,0.53312,0.30354,-0.15556,0.3546,-0.28302,-0.3085,0.12509,-0.1555,-0.18096,-0.56356,0.074051,0.76263,0.58413,0.22716,-0.51254,-0.61455,-0.18101,-0.15551,-0.25757,0.48214,0.48211,-0.079021,-0.30852,0.048531,0.12504,0.048555,0.023035,-0.10445,-0.053402,-0.12994,0.15054,0.55857,0.22697,0.125,0.023041,-0.25747,-0.48699,-0.41048,-0.10444,0.12505,-0.15552,-0.053531,0.32907,0.40561,-0.18097,0.074087,0.09954,-0.053513,-0.232,-0.20647,0.6352,-0.13005,-0.23205,-0.23202,-0.12998,0.4312,0.12506,0.12503,-0.28302,-0.81862,-0.33398,0.35463,0.6606,0.63508,-0.002479,0.02301,-0.027956,-0.41049,-0.58903,-0.10441,-0.23199,0.32917,0.22702,0.048494,-0.053562,0.2526,-0.05347,-0.66563,0.30364,0.38014,0.4311,-0.13006,-0.53802,-0.61458,0.15059,0.12507,0.40566,-0.33404,-0.23198,0.71173,-0.15553,0.099515,-0.38506,-0.25751,-0.027993,0.278,0.023047,0.12504,0.48223,-0.027925,-0.15547,-0.41055,-0.13005,0.60962,0.15057,0.12507,-0.13,-0.15549,0.17607,-0.1555,-0.48707,0.30368,0.023054,0.023047,0.048458,0.099534,-0.20658,-0.20652,0.32915,0.45673,-0.12997,-0.79309,-0.10452,0.48206,0.45652,-0.002472,-0.078935,-0.33397,-0.43601,-0.25754,0.40561,0.43116,-0.027987,-0.002491,-0.25755,0.35463,-0.053506,-0.1045,-0.18098,-0.28298,-0.2831,1.3238,0.43123,-0.35946,-0.56358,-0.23205,-0.25757,-0.51257,-0.33405,0.074111,0.68619,0.45665,-0.53812,0.12505,0.32907,0.35453,0.38012,-0.2319,-0.84405,-0.64014,0.83918,0.12502,-0.35949,-0.002443,-0.33412,-0.13004,0.35467,-0.20649,0.58427,0.32911,0.2015,-0.25759,-0.5126,-0.33403,-0.35954,-0.30853,-0.35953,0.43121,1.0688,0.32902,0.53306,-0.181,-0.71657,-0.48712,0.15056,-0.078977,-0.66556,0.3802,0.94123,0.30353,-0.13001,-0.58911,-0.69111,-0.56357,0.12507,0.78812,0.60958,-0.23199,0.50776,-0.20647,-0.46154,-0.28298,-0.38504,-0.30855,0.15057,0.53309,0.55857,-0.20657,0.099564,0.023096,-0.20649,-0.58908,0.17605,0.20161,0.58417,-0.81862,0.22709,-0.027907,-0.002423,-0.25754,-0.20653,-0.38511,0.20155,0.58414,0.22703,-0.078996,-0.20649,-0.053439,0.32912,0.53315,0.45666,-0.33404,-0.58908,-0.18098,-0.07899,0.32913,0.38006,-0.28301,-0.51256,-0.002454,0.022992,-0.079021,0.22708,0.074062,-0.027974,-0.15545,-0.10451,0.50766,0.40558,-0.48707,-0.027913,0.074111,0.20159,-0.2576,-0.13005,-0.15549,-0.002461,0.27814,0.099583,0.074013,0.15049,0.35453,0.68616,-0.41053,0.27818,-0.027871,-0.33402,-0.33405,-0.25755,-0.15549,0.074002,-0.053513,0.27813,0.099552,0.12505,-0.002436,-0.078966,0.023047,0.58408,-0.10448,0.30368,-0.41057,-0.079033,-0.23203,0.30365,-0.053415,-0.053482,-0.33404,-0.20647,-0.12996,0.22711,-0.53806,-0.10453,0.8646,1.2216,0.50757,-0.58904,-0.53795,-1.2011,-0.1044,0.9158,0.5331,-0.30866,-0.5891,-0.25754,0.048567,0.20158,0.22707,-0.002436,0.27809,-0.078966,-0.10447,-0.002448,0.074051,0.023035,-0.28303,-0.078972,0.12504,0.48209,-0.078972,0.20159,0.099577,-0.30853,-0.283,-0.58908,-0.20653,0.023047,-0.079033,0.40567,0.50771,-0.23203,-0.13004,0.3546,0.1506,0.35467,-0.48708,-0.15545,-0.15553,0.074044,-0.20655,-0.05347,0.09957,0.074026,-0.002491,-0.02795,0.27811,0.023065,-0.25752,-0.23197,0.048536,0.35461,-0.078972,-0.30854,-0.078972,-0.66563,-0.15544,0.40565,-0.027974,-0.13005,0.66064,0.35457,-0.334,-0.58907,-0.79321,0.40571,0.43123,0.27814,-0.002552,0.20152,-0.30855,-0.33407,0.099595,-0.027962,0.45659,0.43107,0.15063,-0.23193,-0.43604,-0.30849,-0.30849,0.27812,0.073935,-0.25759,0.27813,0.7372,0.099534,-0.2065,-0.33402,-0.43603,-0.3595,0.048604,0.30357,0.40559,0.27798,-0.053544,-0.15546,-0.38502,-0.38491,-0.30844,0.099613,1.0433,0.68601,-0.38511,-0.33406,-0.35953,-0.23202,-0.027956,-0.027962,-0.28297,-0.23198,1.1198,1.0687,-0.35961,-0.56357,-0.86963,-0.15545,0.12508,0.48214,-0.2321,-0.38508,0.099637,0.074062,0.15053,0.50754,-0.002516,-0.10447,-0.027962,0.38018,-0.28298,-0.51252,-0.33399,-0.25751,0.023047,0.30352,0.25249,0.76263,-0.35951,-0.64005,0.22714,0.55869,0.099552,-0.25753,-0.35953,-0.56357,-0.66564,0.50766,0.50765,0.17609,-0.078972,0.12505,0.048506,-0.33405,0.15058,0.099552,-0.053506,-0.079026,0.15058,-0.053446,-0.13002,0.60968,0.32912,-0.43602,-0.20648,-0.58903,-0.46151,0.048555,0.32907,0.278,0.023023,0.12507,0.40559,-0.078996,-0.30856,0.27812,-0.30852,-0.20646,0.20166,0.25261,0.12502,0.048469,-0.13002,-0.28301,-0.1555,-0.38505,-0.25749,0.15059,0.53315,0.4056,0.35467,0.15057,-0.028011,0.048525,-0.30856,-0.30852,-0.38502,-0.18097,0.074038,0.38012,0.20156,-0.15547,-0.12998,-0.20655,0.12504,0.099546,-0.078947,0.099626,0.12503,0.12498,0.12507,-0.20647,-0.181,-0.81868,0.25267,0.27816,-0.20646,-0.23208,-0.35961,0.6605,0.074057,-0.10447,0.30368,0.38019,-0.58904,-0.33398,0.048616,0.023005,0.17596,-0.002546,-0.10444,-0.10449,-0.15554,0.3291,0.40563,0.17611,-0.25753,-0.283,-0.053439,0.22705,0.43102,0.048531,-0.51252,-0.71656,-0.23198,0.023041,0.27805,0.2526,0.2015,0.30365,0.074149,-0.15548,-0.10452,0.12508,-0.20655,-0.56367,-0.10457,0.09951,0.048604,0.22712,0.074081,0.25258,0.099546,-0.027969,-0.56357,-0.20647,-0.23198,0.43109,-0.23209,0.3036,0.25268,-0.10445,-0.15559,0.22707,0.023047,-0.13002,0.20155,-0.078977,-0.5125,-0.12991,-0.053372,0.25258,0.099485,0.66052,-0.15551,-0.18095,-0.078928,-0.23197,-0.078959,0.27809,-0.35957,-0.079026,0.12504,0.58411,0.15059,-0.23198,0.074026,-0.33404,-0.38499,-0.13001,0.023047,-0.027993,-0.15546,-0.002418,0.20153,0.43111,0.43113,-0.28303,-0.43604,-0.385,0.12508
-0.002479,0.023035,-0.078977,-0.15549,-0.053458,-0.053464,0.074069,0.15058,0.099534,-0.027993,-0.10451,-0.13001,-0.13,-0.002479,-0.002472,0.023047,-0.002454,-0.027944,0.17607,0.12505,-0.002485,0.023017,0.023023,-0.002467,-0.027962,0.048555,-0.027956,0.09957,-0.002448,-0.027974,-0.1045,-0.12999,-0.20651,-0.15549,-0.078966,-0.027956,0.099577,0.048555,0.09954,-0.002491,-0.053495,0.02301,-0.027987,-0.078984,-0.10447,-0.10447,-0.02795,0.22709,0.25257,0.023029,-0.053488,-0.078977,0.023047,0.048543,-0.002479,-0.053476,-0.02795,-0.027956,0.023047,0.074051,-0.10449,-0.078996,-0.1045,0.023023,0.023041,-0.078972,-0.053458,-0.00243,0.074062,-0.1045,-0.002485,-0.053495,-0.027987,0.048531,-0.027969,0.023059,-0.027938,-0.10447,0.099552,0.074013,-0.0535,0.074038,-0.078984,-0.15549,-0.027944,0.023078,-0.002454,0.023047,-0.13002,-0.002497,0.22708,0.35461,0.27811,0.048549,-0.30854,-0.46157,-0.33405,-0.56362,-0.002461,0.83925,0.73725,0.12507,-0.33404,-0.18101,-0.5891,-0.181,-0.002461,0.15054,0.25257,0.60966,0.20155,-0.15551,-0.35952,-0.18097,-0.002399,-0.25746,-0.2065,0.20158,-0.00251,-0.002558,-0.18104,0.15056,0.50769,0.40568,0.099588,-0.10447,0.40566,-0.23204,-0.61467,-0.7167,-0.35956,0.15056,0.099564,0.45671,0.20169,-0.20645,-0.002521,0.25254,0.78809,0.60962,-0.48705,-0.20649,-0.43609,-0.5126,-0.18104,0.8903,0.20167,-0.2065,0.17603,0.15057,-0.69116,0.074093,0.38017,0.27809,-0.13009,0.32896,-0.51244,-1.2267,-2.5781,0.71168,3.5933,-0.027871,-0.436,1.2216,-0.94626,-0.35943,-0.76742,-1.7874,-1.0479,5.9394,3.3636,-0.81863,-2.2977,-2.2212,-5.2813,1.3236,2.4712,-1.4561,-1.303,0.30355,1.9611,2.8793,-3.5726,3.5168,3.8737,-2.3232,-2.7821,-2.1956,-0.76736,0.25252,1.3237,0.96655,0.45651,-3.5471,1.4766,6.8828,-1.7111,-2.0425,1.0942,-1.2011,-8.6987,2.9813,4.7157,1.0686,-0.79314,0.25249,-0.92058,-1.4051,-0.94605,0.99223,-1.099,-0.53801,0.25248,0.58402,-1.6089,3.2872,2.6242,0.99226,-0.43591,-1.8896,-2.0684,0.12513,-0.15556,-0.58924,-1.5326,1.7319,1.5279,-2.935,-0.79301,2.6241,3.2616,3.5677,0.022961,-3.8788,-4.1337,-3.343,-3.2922,4.4604,3.5167,0.074069,-1.3794,-2.2468,0.43103,2.4713,2.0632,0.35439,-0.56369,-0.76738,0.15105,-0.10419,1.5532,0.86441,-1.3289,-1.8643,-1.4307,0.35442,-0.3595,-0.33393,-0.23182,-1.915,3.6698,1.7063,-4.8223,2.9047,0.099448,1.3236,0.58418,-2.4253,-0.48677,-4.9498,5.0213,4.1031,-0.71657,-1.1754,-1.2521,1.5788,-2.2466,-4.0828,-0.079137,0.66052,0.83915,0.78814,0.43108,0.25257,-0.02795,-0.00243,0.099534,0.35458,0.431,0.12513,0.32898,-0.028042,-0.46148,0.7374,-0.30856,0.20155,-0.84428,0.048549,-0.23201,-0.69125,-0.86928,2.2419,-1.0991,-1.0992,-0.28305,0.60957,0.89021,-0.079088,-2.9607,6.3985,0.38007,-2.272,-2.3231,-1.0991,2.0123,1.9357,0.27823,-1.201,-1.9918,0.38001,0.66065,0.63498,-0.6657,0.2527,0.91575,1.8846,-1.2522,-4.5673,3.9505,0.15054,-0.84401,0.60971,-0.46155,-0.76767,0.83912,1.0177,-1.7622,0.048494,-0.10445,1.0178,-0.46162,-0.48706,0.25247,-0.35954,0.66062,-0.51249,-0.69115,1.3492,0.86462,1.0178,0.35468,-0.23188,-3.8789,2.7517,-0.69098,-0.79322,-4.3631,0.68607,-0.02809,1.8592,2.9048,2.5222,0.07394,-2.0681,-1.0736,-2.3487,-0.30847,0.099662,-1.762,1.8082,1.5531,-0.51267,0.20148,1.6553,1.0177,-0.10438,-0.84397,-1.4307,-1.3797,-0.56359,-0.078996,1.5787,0.43104,-0.18098,-0.61451,-0.28283,-0.23196,1.2216,-0.92062,2.3692,-0.41042,-1.0481,0.81363,0.58428,-1.4562,-0.51266,-0.053544,-0.35956,-0.53798,-0.58902,1.8081,0.8901,-0.15555,2.752,0.20175,-2.0171,-1.7367,-0.43604,-3.8023,3.3127,2.2417,-0.6145,-0.71646,-0.12995,-0.027993,0.15047,0.38008,-0.10445,0.55871,-0.94602,-2.3232,2.2671,-0.078928,-0.28298,0.5075,0.8901,-0.79288,1.4769,-0.35939,-0.4871,0.07394,-0.30873,-0.64014,-1.0225,1.5533,-0.12993,-0.7165,-2.2212,-1.0736,0.9412,2.956,1.6297,-0.002601,-0.35968,-0.89509,-1.4816,-2.1192,-0.61451,0.35458,1.3237,1.1962,0.3546,-0.079026,0.023096,1.9101,-0.53812,-1.0226,-0.33389,-0.81856,-1.099,0.38015,-1.6602,-0.15552,1.0431,1.4257,1.2216,1.2726,0.53311,-1.252,-0.84401,-1.201,-0.97142,-0.28287,0.074062,-0.58901,0.63499,1.2214,1.5276,1.0943,0.58425,-0.5126,-0.48708,-0.41044,-0.64,0.40561,-0.56354,-0.79307,-0.46174,1.2729,1.7575,-0.30853,0.1487,1.9083,-0.20832,-1.6364,-2.2485,2.6224,1.5513,-0.94787,-0.64185,-0.5382,0.40546,-0.2065,-0.38494,-0.58899,-0.64003,-0.027895,0.17606,0.55854,0.43103,1.0431,-0.25745,0.99217,-0.13004,-0.51253,-0.079008,0.12513,-0.30835,-0.027889,0.2781,0.073861,-0.053629,-1.2266,0.63519,-1.2012,-0.28292,0.8392,1.5023,0.45658,0.38008,-0.66568,0.15059,-2.3488,1.8081,0.71151,-1.201,-0.51243,0.45663,0.099461,-0.078904,-0.35954,1.0434,1.2727,0.30339,-0.13002,-0.56352,-0.64007,0.074038,0.2271,0.02298,-0.86974,-0.078879,-0.027871,1.1451,0.53318,0.048531,-0.41053,-0.63998,0.12501,-1.0991,-1.5836,-0.71651,1.6041,1.043,1.7318,0.22718,-0.86951,-0.02792,0.43112,0.32895,-0.92073,-1.0482,-0.20654,0.73711,0.023133,-1.6601,2.5989,0.50761,-0.69106,-0.23194,-0.28298,0.53298,0.073989,0.099559,-0.20647,-0.33401,0.099588,0.048561,-0.02795,-0.97147,-1.0226,0.048512,-0.28299,1.7062,-0.69102,0.17605,0.89014,1.4767,0.7369,0.04842,-0.35948,-0.76747,-0.81835,-1.1754,-0.76753,-0.7675,0.074087,0.63509,0.022883,0.83912,1.1452,0.50758,0.2524,-0.079021,0.86453,-0.028047,-0.97147,-0.58893,0.15069,-2.2721,2.9557,1.2471,-0.76746,-0.66547,-1.5071,-1.0225,-1.3797,-0.7165,0.048573,0.91554,1.4511,1.0176,0.73706,0.12497,-0.38512,0.1761,-0.002265,-0.69096,-0.69109,0.20155,0.17607,-0.20652,-0.053562,0.227,0.43104,-0.18101,0.55874,0.15062,-0.69101,-0.61449,-0.30854,0.12499,0.55849,-0.38511,0.25263,0.2781,-0.58893,-0.35956,0.45656,1.0177,0.5331,-0.58897,-0.2575,-0.99707,-0.23204,0.43105,0.8137,0.40562,-0.51254,-0.84417,-0.33398,0.60965,0.40559,0.27805,-0.078996,0.12499,0.66069,-0.41046,-0.3085,-0.43613,-0.30863,1.0687,0.15057,-0.53798,-0.078886,0.43112,-0.56361,-0.18095,0.15062,0.25257,0.27806,0.15049,0.12495,-0.30862,-0.51254,-0.71648,-0.078806,0.4056,0.20158,0.22711,0.099454,-0.20652,0.48198,0.43104,-0.15545,-0.053402,-0.71659,0.22705,-0.10439,-0.41046,0.048494,-0.15558,0.074155,-0.97149,0.89007,1.5021,0.4055,-0.38503,-0.027969,-0.078868,-0.589,-0.30855,-0.283,0.074185,0.17612,0.37999,0.12496,-0.053519,-0.20647,0.023188,-0.28297,0.53302,0.15038,0.8392,-0.30847,-0.41039,-1.4307,-0.20645,0.58419,0.86463,0.30356,-0.51251,0.074033,0.25251,0.22696,-0.71663,0.5586,0.15068,-0.74199,-0.6655,-0.18099,-0.20654,0.38006,1.0942,1.2472,-0.028018,-0.41049,-0.38499,-0.38497,0.15059,-0.69105,-0.51245,0.55848,-0.053446,-0.33412,1.6298,1.1196,-0.51268,-0.0535,0.25263,-0.487,-1.0225,0.023219,-0.58908,-0.53829,-0.078972,0.048647,0.17606,0.68614,0.43104,0.099479,0.78811,0.50755,-0.002467,-0.58903,-0.078898,-0.053384,-0.41044,-0.81861,-0.10445,0.099503,-0.079008,-0.23202,-0.48705,-0.18101,0.58412,0.60952,0.38008,-0.35962,0.96681,-0.35941,-0.15556,-0.6146,0.30356,-0.18092,-0.10449,0.17603,0.32903,0.45648,-0.027931,-0.38497,-0.053311,-1.1755,0.58413,0.023047,-0.002436,-0.46164,0.2269,1.2218,1.0177,-0.86958,-0.38498,0.099528,-0.13001,-0.35954,-0.66551,-0.9971,0.55862,1.7062,0.20158,-0.97158,-0.078996,0.27793,0.63511,0.40566,-0.97154,-0.053372,0.71166,0.86463,-0.25756,-1.0736,-0.94615,-0.05347,0.15054,0.3801,0.35466,0.17611,-0.25749,0.048549,-0.20652,0.50754,-0.18102,-0.078984,0.07402,0.53311,0.48208,0.048585,-0.15541,-0.33399,-1.2523,-0.027907,-0.002332,0.55868,0.15052,0.09943,-0.079051,-0.4361,0.50768,-0.002418,-0.99702,1.0431,1.1707,-0.99715,-1.1501,-0.181,0.074051,-0.58894,-0.23185,1.0942,0.60964,0.45654,-0.28313,-0.38508,-0.028011,-0.10447,0.17617,-0.35951,-0.23196,-0.20649,0.17601,0.38006,0.074013,0.25262,0.81359,0.22696,-0.48705,-0.07883,-0.74201,-0.15546,0.20158,-0.10451,0.66065,0.22705,0.38006,-0.33394,-0.76755,-0.74208,-0.53803,-0.10444,0.58412,1.0431,0.48194,0.27809,-0.002394,-0.02792,-0.41054,-0.002516,-0.23205,0.89025,0.71165,-0.38498,-0.99712,-0.76763,-0.002394,0.20162,0.278,-0.48708,0.074026,0.53313,1.2218,-0.66556,-0.8186,-0.027931,0.43107,-0.18099,-0.58901,-0.48703,-0.10449,0.45666,0.22696,0.68607,1.1961,0.32914,-0.66556,-0.30849,-0.28298,-0.25741,-0.002394,0.099595,-0.10457,0.099546,-0.05347,-0.053476,-0.64007,0.099491,0.3036,-0.41051,0.45657,0.6606,-0.28298,-0.43597,-0.33396,0.2015,0.17609,0.20152,0.40555,0.78808,0.099546,-0.69104,-0.58896,-0.283,0.17606,0.50766,-0.20652,-0.28298,0.074087,0.12508,-0.10447,0.20152,0.099424,0.58407,0.20152,-0.10445,-0.51252,-0.28294,-0.053421,-0.4105,0.17604,0.25259,0.40561,0.12497,0.12502,0.099668,0.15059,-0.15553,-0.33407,-0.25745,0.5076,-0.25757,-0.25749,-0.58904,0.89026,1.0687,0.09954,-0.41058,-0.92062,-0.053439,0.30361,-0.35952,0.50762,0.53307,0.12494,-0.58908,-0.25739,-0.027809,-0.23199,-0.053476,0.99213,0.32901,0.073959,-0.48708,-0.58907,-0.33396,0.074111,-0.027925,0.12513,-0.181,-0.20652,0.074013,0.099515,0.66059,0.27802,-0.18101,-0.18101,0.27815,0.30366,0.048622,0.89009,-0.48711,-1.2266,-0.84401,-0.002497,-0.10447,-0.84408,0.43104,0.30347,1.732,0.71185,0.099473,-0.35961,-0.18108,-0.61454,-0.64,-0.53805,-0.12996,0.20155,0.048573,0.38014,0.048445,0.22699,-0.30856,0.53321,0.60971,0.48213,0.40566,-0.33407,-0.94614,-1.0481,-1.0227,0.35463,0.27805,-0.66555,0.40561,0.43115,0.78808,1.1962,0.12501,-0.61458,-0.84406,-0.43594,-0.10445,-0.15546,-0.43593,-0.18105,0.63508,1.1196,0.66051,0.55867,-0.61442,-0.48694,-0.18106,-0.74217,-0.58904,0.30366,0.96661,0.45661,-0.92047,0.22708,0.20155,0.73718,0.86461,-1.0737,-0.538,0.27803,0.71152,-0.23208,-0.027822,-0.63993,-3.9297,1.1961,1.3235,0.68604,0.60963,-2.7566,3.2361,1.3492,0.43115,0.09954,-1.0227,-1.5582,0.30366,0.27821,-0.92059,-0.94601,-0.53793,0.45658,0.1504,1.4256,0.38005,-0.13007,0.45658,0.048555,-0.43602,-0.48701,0.32915,0.7627,-0.027993,-0.1555,-0.053446,-0.18088,-0.81849,-0.71658,-0.23207,0.27804,0.8902,-0.078977,-0.25752,-0.69095,0.30339,0.8136,-0.002369,0.02309,0.40555,0.89004,0.22699,-0.99706,-1.0225,-1.0225,-0.66555,-1.3285,1.9613,1.5023,0.22707,-0.81853,0.43108,0.68608,-0.79313,-1.2266,-0.742,0.15062,-0.053446,-0.15552,0.45663,0.8136,0.17598,0.55856,-0.10453,0.35471,-0.56353,-0.027871,0.15059,0.32907,-0.028103,-0.61462,-0.002448,-0.002448,-0.25754,-0.23193,0.38028,-0.53795,-0.46154,-0.53812,-0.51262,-0.10456,0.6862,0.91566,1.2727,-0.48703,0.022937,-0.002497,-0.12989,-0.38488,0.20154,0.125,-0.46157,-0.35943,-0.20642,-0.1045,0.94118,-0.1045,0.073965,0.96651,-0.58903,-1.4051,-0.61445,0.63514,0.86461,0.0741,-0.56354,-0.053353,-0.43605,-0.15549,-0.3341,0.40551,0.8645,0.074013,0.73717,0.48211,-0.027993,-0.58903,0.30368,0.27811,-0.51257,-0.079008,-0.84406,-0.38484,-0.74204,0.22707,0.81351,0.55852,0.30349,0.074013,-0.94606,0.55858,0.12513,-0.078886,-0.48701,0.12513,-1.3285,1.0941,1.4256,0.20146,0.2015,0.25254,-0.13002,0.023127,-0.94601,-1.8131,0.86475,0.94104,-0.10458,0.25252,-0.23201,-0.43597,-0.946,-0.61451,0.78813,1.5787,1.5786,0.30343,-0.48697,-1.0991,-1.7876,0.43128,2.4202,0.58414,0.023096,-0.66547,-0.89515,0.1249,0.91552,0.25254,-1.5837,-1.4306,0.38024,0.53306,0.6607,-0.15547,1.0941,-0.46148,0.45654,0.50752,-0.18108,-0.28308,-0.25748,0.38016,0.17614,0.048634,-1.1501,-1.3543,-0.4615,-0.86944,-1.609,3.7463,2.5478,0.25258,-0.94601,-0.61455,-0.5891,-0.46158,-0.35934,0.6607,0.32902,-0.283,-0.48711,-0.23198,0.17614,0.63515,0.533,-0.20655,-0.99706,0.27809,0.43098,-0.30857,-0.38495,-0.1554,0.7881,0.71165,-0.002369,-1.099,0.048482,0.22705,-0.15553,-1.4052,1.2472,1.4258,0.58402,0.66054,-1.5071,-2.2467,-0.69092,0.55864,0.32889,0.94106,1.0687,0.48206,-1.4305,1.9613,0.73705,-1.354,-1.252,-1.4051,-0.38506,0.48212,0.35459,-0.51245,0.9921,0.53309,0.023065,-0.48702,-0.028066,0.58399,0.96663,-0.078972,-0.002381,-0.38497,-1.252,0.22712,0.48209,-0.48703,-0.33396,-0.181,-0.28306,0.22699,0.76263,0.58408,0.48212,0.22716,-0.078928,-0.61456,-0.76753,-0.30855,0.073935,0.40552,0.38006,-0.58899,-0.20644,0.25252,0.50771,0.40556,0.20155,-0.002374,0.45654,-0.35957,-1.0481,-0.69102,-0.79312,0.58413,1.1707,0.25249,-0.15553,-0.38506,0.074075,0.15057,-0.15545,-0.38499,0.66067,0.37998,0.55862,0.45664,-0.53803,-1.7365,0.71158,-0.25756,-0.053495,0.048506,-0.23202,-0.23198,-0.43597,0.8901,0.38008,0.30356,0.32903,0.15054,-1.1502,0.3292,0.48228,-0.4869,0.022937,-0.69125,-0.51258,0.94115,0.2781,-0.8186,-0.53804,0.43111,0.07402,0.074075,0.48207,0.023121,-0.74206,0.22715,0.099552,-0.002485,0.074013,-0.079045,-0.12994,-0.20641,-0.41053,-0.002583,-0.1811,1.0178,0.50762,-0.30851,-0.89504,-0.43616,-0.12989,-0.05328,1.1962,-2.5782,3.6698,0.81351,-0.66553,-0.63998,-0.4615,-0.38494,-0.30844,-0.97153,-2.7056,0.4565,1.0431,1.7572,0.48201,-0.18108,0.68625,0.60967,-0.81859,-0.58897,-0.20639,-1.0226,-0.20654,0.099485,0.58405,0.68613,0.35453,-0.15553,-0.25743,-0.30843,0.25263,0.94117,0.048567,-0.69106,-0.97158,0.60955,0.32904,-0.64008,0.09957,-0.078917,-0.30851,-0.35956,-0.053427,1.0942,0.48204,-0.89515,-1.1246,0.68635,-0.002345,0.17609,0.048451,0.55848,0.48192,-0.028054,-0.43596,-0.41048,-0.25736,0.60963,-0.20647,-0.078923,-0.28308,-0.10459,-1.5581,1.7062,0.96669,0.25259,-0.23193,-0.58901,-0.23202,-0.028023,-0.28301,0.099681,0.074155,-0.61469,0.022827,0.53313,0.15061,-0.46155,-0.10447,-0.002423,-0.10447,-0.23201,-0.1045,0.55864,1.0942,0.22705,0.22704,-0.48709,-0.69102,-0.58901,-0.46149,-0.25744,0.43115,0.53303,-0.13009,0.30355,0.35458,0.048567,-0.4615,-0.84405,-0.69102,0.55866,0.023072,-0.002491,0.125,0.35453,0.20156,0.94111,0.48202,0.81363,-0.58893,-0.89499,-0.41057,-0.97152,0.20155,0.27808,-0.027987,-0.23198,0.023054,0.27806,0.35451,0.40558,0.38009,-0.43605,-0.51254,-0.12994,0.58409,0.25253,0.074136,0.86475,0.2781,-0.51259,-0.86963,-0.25749,-0.30847,-0.23201,0.55855,0.63498,-0.002503,-0.10443,-0.07885,-0.20642,0.20163,-0.25753,-0.15557,-0.43612,-0.078928,0.53307,0.32902,-0.12992,0.30374,-0.002448,-0.56366,0.048476,-0.3085,0.55852,0.023103,0.38014,-0.99705,-0.027938,0.32904,-0.078935,-0.69101,-0.51252,0.43107,0.3545,-0.18111,0.38014,0.27806,0.17604,0.66072,0.20167,-0.15548,-0.30852,-0.053562,-0.13,-0.18101,-0.81857,-0.33397,0.17607,0.50762,0.94121,0.32909,-0.43606,-0.41054,0.048543,0.94125,0.66065,-0.15547,-0.18101,-0.33398,0.35453,-0.28308,-0.84416,-0.28291,0.60977,0.22704,0.0485,-0.43605,-0.30849,-0.028029,0.30361,0.81372,0.38005,0.20157,-0.30849,-0.86969,-0.76754,0.53331,0.76262,0.12496,-0.30853,-0.053482,-0.078996,-0.41052,0.074075,-0.92069,0.1762,0.45676,1.1962,0.50745,0.25238,0.048543,-0.86962,-0.30844,-0.18091,-0.38495,-0.12996,0.17602,0.12504,-0.10457,-0.15549,-0.53795,0.17604,0.048604,0.9411,-0.51262,-0.4105,0.40566,-0.66551,1.1452,-0.41041,0.25261,-0.71662,-0.56359,-0.28301,-0.15551,-0.28299,0.22712,0.66064,0.45654,0.023029,1.0431,0.94111,-0.61454,-0.92051,-1.2011,-0.64003,0.15059,0.53315,1.1451,0.55862,-0.61468,-0.027944,-0.078966,0.35458,-0.76758,-0.56349,0.17609,-0.15546,0.1251,0.022974,0.27796,0.15068,0.25252,-0.86961,0.32907,0.43101,1.3491,0.073989,-0.79296,-1.1755,-0.5125,0.074087,0.45655,-0.46168,0.60963,-0.10454,0.50771,-0.64005,0.76263,0.60965,-0.10446,-0.51251,-0.86965,0.3291,0.9922,0.40557,0.22694,-0.97162,-0.86957,-0.74199,0.48219,0.12503,0.53315,0.35465,-0.38514,0.073995,0.66066,0.048592,0.50765,-0.053482,-0.053549,-0.58901,-0.078947,-0.43604,-0.35956,0.83912,1.1707,-0.25754,-0.76748,-0.10443,0.12507,0.48215,-0.35946,-0.58903,-0.38501,0.17603,0.073995,-0.25748,-0.12998,0.58412,1.2471,0.83902,0.22698,-0.28298,-0.053415,-0.23191,-0.58896,-0.76749,-0.94605,0.20153,0.2271,0.099521,-0.20657,-0.13005,0.60959,-0.43597,0.40561,0.32909,0.3035,0.53314,-0.33401,-1.0226,-0.43601,-0.053427,-0.078923,-0.53804,-0.61451,1.1706,0.17601,-0.12993,0.30356,0.5585,0.99209,0.55859,-0.7675,-1.1501,-0.30838,-0.078984,-1.0737,-0.53795,0.91555,0.20151,0.099588,-0.10448,0.99222,0.32908,-0.3595,-0.18098,0.12513,0.38005,0.27798,-0.13004,-0.30852,-0.844,-0.10446,0.09957,0.27806,-0.00254,0.12509,0.048543,0.22707,-0.25755,-0.28302,0.023152,-0.078923,0.48208,0.25257,-0.81857,-0.078953,0.22707,0.9156,0.25258,-0.76767,-0.64015,0.023078,0.32916,-0.07891,0.66073,0.7116,-0.33415,-0.43611,-0.38502,-0.46149,-0.23197,0.17607,0.45658,0.048555,-0.002418,0.17604,-0.027969,0.023041,-0.053506,-0.23201,0.12507,0.66067,-0.078984,-0.81862,-0.33405,0.68622,0.83915,-0.28301,-0.74202,-0.79302,-0.64003,0.12509,-0.027962,0.12502,0.68604,0.83906,0.76256,-0.283,-1.1246,-0.35942,0.1251,0.66067,0.15051,-0.46152,-0.66553,-0.15547,-0.027969,0.176,0.20152,0.023023,0.71163,-0.053464,-0.15543,-0.84407,-0.51245,0.48209,0.17603,0.074087,-0.027987,-0.28301,0.43108,0.25253,0.3545,-0.053476,-0.18093,-0.71649,-0.61455,-0.15541,0.66064,0.02295,0.329,-0.43595,0.32908,0.27801,0.35456,0.53328,-0.33394,-0.25751,-0.79313,-0.99718,0.27806,0.43117,0.7116,0.63514,-0.027956,-0.41051,-0.10447,-0.027993,-0.51269,0.38006,0.71168,0.12513,-0.41048,-0.30844,-0.51254,0.023023,-0.10455,0.1251,-0.027956,0.22705,-0.53807,0.68607,0.45656,0.22712,-0.053415,-0.15547,-0.66564,0.15057,0.60977,-0.64007,-0.20653,0.50767,-0.15543,-0.56358,-0.15549,0.30351,0.25248,-0.25759,0.20153,-0.079008,0.30371,0.53319,0.22712,-0.334,-0.46148,-0.12999,-0.15553,0.12506,0.022992,0.25258,-0.002369,-0.38506,0.27802,0.17606,-0.8442,-0.35953,0.83932,0.12509,-0.436,-0.71657,-0.13002,0.27803,0.176,0.17602,0.1506,0.074185,0.30361,0.074062,0.12504,0.22697,-0.028018,0.20153,-0.48701,-0.94606,-0.078843,0.53321,0.27802,-0.35959,0.17608,-0.46158,-0.35953,0.15053,-0.027998,0.45666,0.099479,0.32903,0.94126,-0.33402,-0.30858,-0.92054,-0.027998,-0.23196,-0.71653,0.12514,0.30362,0.329,0.30347,0.99227,0.048476,0.45654,0.40552,-0.12995,-1.1501,-0.6399,-0.48693,-0.20653,-0.002461,-0.6657,0.17605,1.6299,0.50757,-0.00257,-0.25751,-0.12991,-0.25747,-0.28298,-0.028005,0.38005,0.89011,0.15046,-0.46154,-0.18094,-0.41041,-0.4615,-0.25749,0.30356,0.023035,-0.25736,-0.2064,-0.079081,1.1195,0.71155,0.22707,0.30364,-0.66552,-0.66553,-0.51252,-0.30851,0.099528,0.58409,0.66056,-0.3085,-0.15544,-0.053421,0.22707,0.023023,0.099559,-0.079008,-0.10446,-0.1555,-0.027969,0.27805,0.12509,0.22696,-0.20644,-0.002418,0.15064,-0.41046,-0.33404,-0.15554,0.22705,-0.30849,0.58408,0.7116,-0.28301,-0.64002,-0.23196,-0.23197,-0.10445,-0.15548,-0.053488,-0.078966,0.22706,0.50751,0.22706,0.099503,0.22711,0.17603,-0.46154,-0.66556,-0.46149,0.22716,-0.13007,0.58412,0.35466,0.02301,-0.23207,-0.71664,0.25263,0.023096,0.074033,-0.30856,0.048561,0.023023,0.15062,0.32907,0.099515,-0.053482,0.50763,0.099546,-0.41046,-0.64007,-0.12999,0.25258,0.48207,0.17601,0.27804,0.048555,-0.43601,-0.43608,-0.53804,-0.027858,-0.12991,0.48212,0.40553,0.32901,-0.028066,0.15054,-0.053482,0.048592,0.38017,-0.48697,-0.74212,-0.51257,0.048536,-0.002436,0.30356,0.099479,-0.10449,-0.078977,0.074038,0.35463,0.81364,0.27802,0.5841,-0.66558,-0.74204,-0.38497,-0.027846,-0.53804,0.17607,0.27809,0.38007,-0.10453,0.53313,-0.002485,-0.43607,-0.35954,0.023047,0.17608,0.32907,0.099534,0.12509,-0.58904,0.074075,0.53317,0.50754,-0.3086,-0.94615,-0.30847,0.32919,0.32915,-0.3595,0.12506,0.58401,0.048512,-0.48706,-0.61462,-0.35948,0.048604,0.5076,0.6606,0.4566,-0.00243,-1.0481,-0.30842,0.30363,1.1196,-0.15554,-0.81853,-0.56352,-0.35951,-0.002467,-0.053427,-0.053433,0.25265,0.3546,0.25248,-0.053604,0.2526,0.17606,0.30356,-0.28298,-0.18098,0.50775,0.38005,-0.56362,-0.66563,-0.35956,-0.33396,0.17611,0.073989,0.27809,0.32913,-0.078923,-0.23193,-0.71665,0.43112,0.63511,0.073959,-0.13005,-0.002485,0.38009,-0.078928,-0.538,-0.28295,-0.46152,-0.35956,0.58404,-0.13007,0.4056,0.27815,0.5842,0.20156,-0.58903,-0.41049,-0.58908,-0.48705,-0.002485,0.32907,0.50749,0.17604,0.023078,0.074062,-0.15545,-0.12995,-0.38506,0.099564,0.48216,0.25257,-0.20651,-0.30853,-0.12999,0.30361,0.71158,-0.58908,-0.48702,0.35467,0.55871,-0.13007,-0.23203,-0.30851,-0.20647,0.15061,0.48218,0.20155,0.022986,-0.89521,-0.48708,0.099564,0.76267,0.83925,0.3802,0.48218,-0.41057,-0.69113,-0.28302,-0.58915,-0.053525,0.022986,0.25261,1.528,0.15065,-0.64017,-0.53819,-0.078977,0.17606,-0.15555,-0.027907,0.38014,0.099601,-0.20652,-0.35953,0.15065,0.40571,0.074062,-0.00257,-0.25758,-0.43608,-0.20646,0.32913,0.1505,0.55847,-0.58902,-0.078868,-0.58901,0.099601,0.2526,0.20157,-0.13006,-0.20655,0.12502,0.023041,0.048567,-0.15541,0.17609,0.3801,0.22697,0.0485,-0.30846,-0.64009,-0.283,-0.027931,0.27812,0.53315,0.25256,-0.10455,-0.13002,0.30362,-0.41055,-0.15553,0.2781,-0.46154,-0.64001,-0.2319,0.83925,0.71154,0.25248,-0.46157,-0.027969,-0.43602,-0.25747,0.20164,0.30369,-0.10444,-0.13001,-0.053513,-0.3851,-0.079021,0.60964,0.81362,0.60962,0.25259,-0.48706,-0.71651,-0.66555,-0.38502,0.048604,-0.078947,-0.2065,0.12507,0.40556,0.50755,0.20155,-0.20652,0.023072,-0.053476,0.074013,0.12503,0.074069,0.25264,0.12512,-0.078977,-0.25756,-0.43602,-0.07899,-0.10446,-0.053488,0.048512,0.25259,0.048604,-0.35951,-0.33398,-0.13002,0.30363,0.074008,-0.13,0.38003,0.43103,0.15057,-0.15546,0.048653,-0.18094,-0.56354,-0.46156,-0.28307,0.6861,0.17604,0.048531,-0.58913,0.048629,0.30366,0.25263,0.048561,0.30358,0.074008,-0.053513,-0.20651,-0.436,-0.28298,-0.18096,-0.078935,0.074081,0.12509,0.25257,0.76264,0.53306,-0.66561,-0.078917,-0.002443,0.099515,0.20151,-0.56352,-0.20643,-0.48702,-0.25749,-0.10447,0.048525,-0.33411,0.81368,0.7626,0.40555,-0.38511,-0.12991,-0.12989,-0.5635,-0.71665,1.0943,1.2727,-0.46157,-0.97164,-0.28296,-0.28303,-0.41051,-0.12994,0.83928,0.5586,0.022961,-0.053531,-0.38506,-0.33399,-0.15548,0.12504,-0.13,0.60973,-0.027938,-0.28301,-0.20655,0.43108,0.50756,-0.20649,-0.30849,-0.13001,0.40557,0.023035,-0.35947,0.02309,-0.18095,-0.48702,-0.53809,0.32912,0.99216,0.6861,-0.12999,0.40575,-0.079051,-0.13005,0.35452,-0.078984,-0.053458,-0.12993,-0.20647,-0.28304,-0.1299,-0.053439,-0.078947,0.81368,-0.15563,-0.078972,0.22713,-0.38503,0.15052,0.12505,0.12505,-0.12997,-0.4615,-0.15546,-0.027969,0.66056,-0.10455,0.3546,-0.334,-0.64009,-0.002423,0.27811,0.48223,-0.23199,-0.028029,0.45649,0.25245,0.32902,-0.2575,-0.48699,-0.027834,0.12523,-0.41049,-0.23205,-0.28303,-0.18096,0.35457,0.91561,0.55853,-0.23197,-0.61458,-0.33399,0.35467,0.32907,-0.15553,0.048573,-0.20647,-0.18102,-0.18101,-0.002472,-0.35955,0.15059,0.17609,0.15061,0.27802,-0.028018,-0.33401,-0.35951,0.048549,0.22707,0.22707,0.27806,-0.20647,-0.5125,-0.69115,0.83922,0.99223,0.32904,-0.38509,-0.69105,-0.56353,-0.20644,-0.28301,0.15053,0.40558,0.43105,-0.027987,-0.053446,0.17609,0.20158,-0.078959,-0.18093,-0.078935,-0.15551,-0.00251,0.35462,0.12505,-0.25756,-0.3341,0.50769,0.53315,-0.51257,-0.79306,-0.51252,0.2015,-0.00251,0.048598,-0.027938,0.76263,1.0432,-0.053568,-0.51251,-0.63997,-0.48703,0.48205,-0.15554,0.048592,0.023072,0.12504,0.43109,0.6096,-0.48706,-0.51252,-0.12998,-0.10453,0.022974,0.30363,0.38019,-0.20644,-0.48711,-0.38509,0.78824,0.15059,-0.079033,0.20149,0.073953,0.38011,-0.28297,-0.46151,-0.76755,0.40573,0.20161,0.53312,0.073995,0.20151,-0.079093,-0.46156,-0.25746,0.12507,0.2271,0.20158,-0.18096,-0.33398,-0.002448,0.022968,0.45658,0.50757,0.12501,-0.487,-0.33396,-0.18098,0.074093,-0.15546,0.074038,0.023023,0.048476,-0.028018,0.073977,0.53307,-0.51264,0.3547,0.22726,-0.76755,0.099637,-0.18105,-0.028109,-0.20658,-0.10449,0.17609,-0.20656,0.27809,-0.10446,0.048585,0.20161,-0.1045,-0.64012,0.53311,0.83916,1.1452,-0.86961,-0.63999,-0.4105,-0.30852,-0.41055,-0.15549,-0.13,0.68611,0.45653,-0.002491,0.20164,0.023084,0.22711,-0.89517,0.73723,0.68616,0.22701,-0.94615,-0.81863,-0.28294,-0.10441,0.12507,0.48205,-0.02798,-0.1555,0.048476,0.83912,-0.28316,0.89036,-0.5634,-0.15547,0.20158,0.81354,-0.28303,-0.53802,-0.53805,-0.38502,-0.20647,-0.43601,-0.18097,0.45655,1.4002,0.78812,-0.053482,-0.53803,-0.89502,-0.20646,0.3546,1.1451,0.30347,-0.46151,-0.99706,-0.33402,0.60965,0.50757,-0.078892,-0.25736,-1.0737,-0.51257,-0.43604,-0.51263,1.4257,1.8083,0.45651,-0.8186,-0.64003,-0.56351,-0.46153,-0.71663,-0.35948,0.63521,0.96671,1.3746,0.91583,-0.30844,-0.71659,-0.69106,-0.99721,-0.92068,0.099626,0.83921,0.17606,1.2217,-0.46155,-0.38499,-0.38499,-0.4105,-1.3799,0.71173,0.94127,1.0178,0.12505,-0.69125,0.83917,0.30355,-1.0736,-0.99707,-0.41044,-0.51253,-0.25766,1.0943,0.30359,-0.15551,-0.53808,-0.00251,-0.20653,0.17604,0.35456,1.4257,-0.078953,-0.15538,-0.053397,-0.53799,-0.74207,-0.027944,-0.053482,-0.10449,-0.10452,0.89011,0.96664,0.27815,-0.61455,0.023145,0.17608,-0.3851,-0.48706,-0.25759,0.25257,0.89029,-0.38505,-0.66569,-0.84422,0.78827,-0.10435,-0.66563,0.38009,1.1451,0.17584,0.048634,0.15063,-0.25753,-0.20646,-0.58907,-0.38494,-0.28289,-0.51256,-0.58921,0.022956,0.53309,0.48199,0.20155,0.20165,0.27819,-0.28297,0.38008,0.66064,-0.053506,-0.69114,-0.6911,0.27825,0.9412,0.43106,-0.64014,-0.66563,-0.56359,0.53327,-0.15546,-0.35948,-0.53804,0.023054,0.25258,0.71168,0.22697,0.91559,0.45662,-0.10438,-0.64004,-1.0483,-0.41049,0.60972,-0.053513,0.45666,0.099632,-0.30849,-0.86957,0.5585,0.86461,0.71157,0.15056,-0.23199,-0.41046,-0.84402,-1.0735,-0.053348,0.20159,0.32892,0.78814,0.73711,0.38004,0.22702,-0.43603,-0.61451,-0.28294,-0.23191,0.32908,0.81374,-0.35965,-0.92061,-0.71665,1.5025,0.12507,0.45656,0.584,-0.89516,-0.66551,0.3547,0.50759,-0.35957,-0.41051,-0.10438,0.32904,-0.23205,0.099564,0.0485,0.22707,0.20159,0.32918,-0.1555,0.17612,-0.20653,-0.43605,-0.46164,-0.18098,0.50766,0.15053,0.30353,0.278,0.45656,0.27805,-0.43598,-0.66543,-0.66554,-0.35948,-0.10449,0.15057,0.27795,0.30355,-0.33406,0.2271,0.6861,0.71164,-0.12996,-0.51255,-0.12995,0.048653,-0.23201,-0.7421,0.48211,0.27806,0.12503,0.68613,-0.12995,-0.74204,-0.61455,-0.38504,-0.76767,0.12505,0.53314,-0.05364,0.96677,0.30367,-0.30852,0.15061,0.074111,0.32915,-0.079026,-0.30858,-0.74206,-1.0736,0.96659,0.55858,-0.10447,0.20161,-0.12995,-0.76748,-0.58903,-0.07899,0.38003,0.43105,0.12497,0.15051,-0.35959,0.43114,0.25263,0.94124,0.40564,-0.74212,-0.94612,-0.25743,-0.053495,1.1962,-0.20647,-0.53805,-0.48705,0.048604
-0.28301,-0.23202,-0.1045,-0.002485,0.074044,0.099564,0.099559,0.17608,0.074051,0.074044,-0.027956,-0.12998,-0.12999,-0.027974,-0.002467,0.048536,0.023041,0.074057,-0.002467,-0.027974,-0.15549,-0.12999,-0.002461,0.074051,0.023041,0.023047,-0.027956,0.023059,-0.05347,-0.181,-0.23202,-0.13,-0.02798,0.023029,0.15055,0.25259,0.17607,0.17608,-0.027956,-0.10447,-0.15548,-0.28302,-0.13001,0.074026,0.12505,0.15056,0.12505,0.074062,-0.05347,-0.078977,-0.10447,-0.027969,-0.027969,0.048555,0.023047,0.09957,0.048567,0.15059,-0.027944,-0.15548,-0.20649,-0.1555,-0.078996,-0.027987,-0.027987,0.17606,0.12505,0.099552,0.048561,0.023054,-0.10447,-0.078984,-0.053488,-0.053488,-0.027969,-0.002467,0.048549,0.074062,0.15058,0.023047,-0.078984,-0.10448,-0.12999,-0.053495,-0.053495,0.17607,0.17607,0.099559,-0.027962,-0.15548,-0.28301,-0.18101,-0.02798,0.12504,0.25257,0.17608,0.074057,-0.002467,-0.02795,-0.027962,-0.1555,-0.078984,-0.078996,-0.002472,0.023047,0.023035,0.20158,0.09957,0.023041,-0.20649,-0.20649,-0.12999,0.099546,0.048531,0.099546,0.048549,0.09957,0.074062,0.074057,-0.05347,-0.181,-0.15548,-0.027987,-0.053488,0.12505,0.048549,-0.027974,0.12508,0.15058,0.023054,-0.30852,-0.2065,-0.10449,0.099546,0.3546,0.15055,-0.078984,0.023041,-0.053458,0.023041,-0.10448,-0.078996,-0.1045,-0.10449,0.074044,0.099552,0.22707,0.074062,-0.027956,-0.25751,-0.25751,-0.33404,-0.079002,0.15055,0.048536,0.27808,0.12505,0.023047,-0.002454,-0.10448,-0.181,-0.181,-0.02798,-0.002472,0.12507,0.048531,0.17609,0.22713,-0.12998,0.048561,-0.25751,-0.18098,0.17609,-0.02798,0.074038,-0.002479,-0.48711,-0.5381,0.17609,0.50769,0.2526,-0.12999,-0.38508,0.074013,0.023035,0.17607,-0.027962,0.60971,0.35461,-0.18102,-0.41054,-0.18095,-0.51257,-0.2065,0.048561,0.023005,0.43112,0.35459,0.15054,-0.25751,-0.56361,-0.20649,0.40566,0.40566,-0.002461,0.07402,0.073989,-0.51259,-0.64006,0.048567,0.53315,0.17606,0.048549,-0.10449,0.17603,0.12497,-0.15556,-0.28297,-0.10433,0.17619,-0.48701,0.35464,-0.81876,1.1453,0.22704,-0.053458,-0.89522,0.81359,-0.46156,-0.25755,-1.6602,-0.05336,1.2219,1.0943,-0.56355,-1.0992,0.32898,2.1395,-0.25743,-0.053304,0.7626,0.048469,-0.74208,-0.30856,0.27814,-0.30854,-0.002448,-0.053397,-1.0989,-0.5635,0.15013,0.45672,1.4257,0.1507,0.68608,-0.97136,0.15035,3.6952,-0.23196,-1.7111,-2.0172,-0.13005,-1.5071,-3.0628,2.4203,2.2672,1.4765,-1.6346,-0.30855,-5.0772,5.0212,3.3641,-1.303,-0.053219,-1.0479,-5.5366,4.5113,0.37996,-1.0993,-0.97155,4.2309,1.7319,-6.3521,0.63486,0.88988,-0.002503,0.78806,0.38005,-1.0991,-1.8896,-0.66523,-0.56325,-5.8932,7.597,1.1705,-1.0227,1.2983,2.4458,1.0175,0.099466,-2.6292,-3.0882,0.58417,0.63509,-1.4053,0.12492,0.43088,0.048469,-1.8386,1.834,0.6862,2.471,-1.405,2.8285,-0.46154,-1.7365,-1.6344,-1.2266,-0.61473,0.099577,-0.84418,0.43115,1.5021,0.53307,-0.20653,0.15051,-0.23212,0.81372,0.17612,-0.99712,0.89036,1.4511,0.099442,-0.71661,-0.487,-0.02792,0.4312,-0.84414,-1.4563,1.1709,0.15074,-0.51252,0.55852,1.1451,0.38,-0.81865,-1.4818,0.60971,0.27813,-0.7675,-2.2722,2.4967,1.1196,1.0177,0.43107,0.48211,-0.23197,0.12526,-1.3286,-1.9662,-1.5326,0.099552,0.6095,0.60949,0.7626,-0.053544,0.86475,0.43113,-0.25755,0.30347,0.86462,0.073989,-0.84407,-0.58897,-0.30862,1.2984,0.86486,-1.6094,-1.2269,0.35473,0.78828,-0.10461,-0.10459,0.43107,0.25249,0.15052,0.12513,0.50776,-0.66551,-0.84408,-1.3286,-0.46151,-0.74212,1.1196,0.58409,0.83909,0.35453,1.2218,-0.46152,-0.64013,-0.51257,-0.61475,1.0689,-0.027858,-0.74211,-0.33406,0.17599,-1.3285,-0.71652,1.2472,0.32908,-1.5072,-0.33396,0.66055,2.0888,1.5532,0.12502,-1.3287,-1.252,0.25287,-0.66544,-1.0737,-0.43628,1.4511,0.43103,1.0177,-0.25754,-1.0226,0.91564,-0.69107,-0.74215,0.86469,-0.25743,0.58417,-0.25748,-0.69107,-0.2575,0.048536,0.83919,-0.691,0.20158,0.60952,0.55856,-0.18102,-0.20644,0.50761,-0.41046,-0.58907,-0.18098,-1.0992,-0.10444,-0.56345,1.0431,-0.13007,0.02323,0.55861,1.0431,0.48199,-0.078861,-0.23188,-0.23199,0.66062,0.48199,-0.76758,-0.97153,-0.86952,0.023145,-0.66553,0.30347,1.7061,2.5736,0.78825,-2.1193,-0.23203,0.074062,-1.0737,-0.66567,0.099546,0.35459,-1.1756,-0.28302,0.55859,0.83912,0.32896,0.02301,0.023096,0.81373,-0.38492,-1.5326,-1.0226,-0.76753,1.9866,0.53309,-0.20647,0.38006,-0.10447,-0.69105,-0.10631,0.30171,0.60773,0.074087,-0.81858,0.43121,-0.43612,0.78818,-0.18101,-1.4563,2.038,0.25262,0.38018,0.048409,-0.84417,-2.4511,-1.0735,1.0944,1.1452,-0.43609,-0.69109,-0.13,-0.10442,0.32912,0.68605,-0.027993,0.073989,1.2983,-0.43595,-0.28307,-0.56361,-0.3339,-0.56336,-0.283,0.73708,1.7828,0.1503,-0.86971,-0.48698,-0.1554,-0.41052,-0.61443,-1.9915,1.6041,-0.25751,-0.18113,1.5023,1.6298,0.40546,0.76266,0.60982,-2.5784,-1.1757,0.40569,-1.1502,0.94115,0.25266,-0.53818,1.4768,0.27806,-0.71659,-0.56355,-0.25746,0.1251,-0.38502,-0.99694,2.3183,0.60954,-0.33407,-0.53801,0.30354,0.86464,0.53318,-0.76754,-0.64006,-0.53809,0.22712,-1.2776,-1.0226,-0.51262,0.99207,0.83895,2.0888,0.55879,-0.97153,-0.97161,-0.5891,-0.12999,1.5023,0.048531,-0.15544,-0.35955,0.023005,-1.7366,0.43096,2.1652,-0.18113,-0.79299,-0.078757,0.20156,0.048487,-0.35956,-0.66552,-0.97156,0.02323,0.55862,1.6808,-0.002625,-1.0992,-0.18101,0.40547,0.27803,0.73718,-0.3339,-0.63996,-1.7877,-0.078874,1.4513,0.30342,0.073917,-0.15555,-0.74201,-0.97151,-0.61462,0.73708,1.4512,0.76251,-0.61465,-0.12982,0.38032,-1.0735,-0.94601,0.4821,0.76254,0.66043,-0.053488,-0.15531,0.12507,-0.43595,-0.12996,-0.3851,-0.35953,-0.002412,0.43108,0.482,-0.48707,-0.02798,-0.027962,0.25244,0.66054,0.30351,0.45664,0.25279,-0.20627,-1.1755,-0.46149,0.43103,0.76256,-0.71669,-0.053513,0.09957,0.1506,-0.97165,0.32923,0.99212,0.53306,0.76256,-0.51271,0.3291,-0.51248,-0.33396,-0.23191,-0.25756,-0.25753,0.15064,-0.56355,0.15045,-0.002516,-0.25763,1.1963,0.94123,-0.18092,-0.30855,-0.8186,-0.66552,-0.53804,0.17609,-0.12995,0.048536,0.86469,0.83911,0.32892,-0.84405,-0.30867,1.3749,-0.30834,-0.63992,-0.99707,-0.43616,1.3237,0.37994,-0.15542,0.023194,-0.33386,-0.86963,-0.66573,-0.053525,0.71176,0.074111,-0.002491,0.35451,0.66057,0.55853,-0.33404,0.30373,-0.436,-0.053372,-0.33406,-0.18109,-0.15551,-0.99716,0.3036,2.2419,2.1908,0.76258,-1.7877,-2.9352,-1.0736,-0.84402,-0.46156,0.38003,0.22701,1.1706,1.4002,-0.23188,-0.30849,0.022943,0.023005,0.66062,0.35462,0.38003,-0.41039,-0.8186,-0.12998,0.0485,-0.51259,0.63507,-0.027998,-0.20647,-0.079021,0.17612,-0.35946,-0.71647,0.43121,-0.15557,1.1706,0.73706,0.099515,-0.53812,-0.99701,-0.35949,0.023072,0.30358,0.50759,0.40568,-0.28302,-0.13005,-0.28307,-0.053427,-0.28295,-1.048,1.9102,0.71142,-0.46157,-0.74208,0.99234,0.94123,-0.07891,-1.2522,-1.2011,-1.6601,-0.13007,0.40565,-0.15553,0.73721,0.22707,0.83915,0.55857,-0.053568,-0.20655,-1.1503,-0.28302,1.0179,1.5279,0.7372,-0.053573,-1.7624,-0.18094,-0.33396,-0.28308,-1.3289,1.6556,0.66082,0.22709,-1.1758,-0.51255,0.25254,0.86458,0.73718,-0.33405,-0.10445,-0.053415,-0.38501,-0.25757,-0.053427,-0.1809,0.32912,0.329,-0.43613,-0.99716,0.32915,0.55872,0.83903,0.12505,-0.002418,-0.53809,-0.41057,-0.38503,0.099552,0.35465,0.22702,-0.35958,0.4312,-0.64014,0.17609,-0.027889,-0.07891,-0.53804,0.20159,0.60952,1.2218,-0.23209,-0.41054,-0.20643,-1.2012,0.25273,-0.002454,0.83922,0.3799,0.66056,-0.33403,-0.69101,-0.12991,-0.53801,-0.41041,-0.33393,1.0431,0.25251,-0.23207,-0.10454,-0.10453,1.0433,0.58408,0.099564,-0.46145,-0.23197,-0.33405,-0.002516,0.099497,-0.41047,-0.078892,-0.66556,-0.25752,0.35464,0.45663,-0.002534,-0.10443,0.17614,0.60968,0.27795,0.53293,-0.078984,-0.20647,-0.385,-0.86957,-0.51241,-0.15543,0.099595,0.63518,0.32904,-0.53814,0.35457,-0.12996,0.099662,-0.18101,0.048433,0.073977,-0.028042,-0.35951,0.68619,0.1506,-0.28299,-0.30854,-0.20652,0.83917,0.48214,-0.12993,-0.28302,-0.20652,-0.25754,0.35461,0.27806,-0.5636,-0.43612,1.1452,0.6861,-0.027895,0.50754,-0.002577,-0.84409,-0.97157,-0.69095,-0.69097,0.38016,0.48206,0.12495,-0.43622,1.4258,0.66065,0.2016,-0.43603,-0.33405,-0.41061,0.074062,0.17617,-0.58902,-0.28304,0.25255,-0.71664,-0.53808,1.4515,0.099559,-0.94614,-0.35957,0.023047,-0.23218,0.71168,0.86463,0.12504,-0.6146,-0.35946,-0.10434,-0.078886,0.15055,0.73708,-2.1956,1.1196,0.50758,-0.079051,-0.53817,-0.00254,1.2219,0.1506,-0.6655,-0.81855,-0.74211,0.40563,0.17603,0.022852,0.96658,0.38016,-0.1555,-0.15546,-0.2575,-0.078923,0.25271,0.71155,-0.66572,-0.30847,0.99227,0.2526,-0.41049,-0.79316,-0.02798,-0.18098,-0.43598,-0.61448,0.32902,0.78814,0.53304,0.71155,-0.078947,-0.79304,0.83917,-0.58903,-0.53798,0.048616,0.12505,-0.079063,0.40555,0.48209,-0.1556,-0.71655,0.78838,0.048634,-0.078977,-0.10459,0.43098,0.22697,-0.43612,0.099491,-0.12994,0.099699,-0.23183,-0.74198,-0.13011,0.50756,1.6806,0.20155,-0.30844,-0.51249,-0.742,-0.38499,-0.15542,-0.027987,-0.66558,0.63506,1.1707,0.35456,-0.002534,-0.23201,-0.38516,-0.079033,0.40583,-0.5124,0.1506,0.22708,0.40551,0.35448,-0.28318,-0.38502,-0.33391,-0.38499,-0.10442,0.1251,-0.12995,0.17603,-0.18107,-0.053635,1.4512,0.48203,0.55869,0.4567,-0.30835,-1.4051,-0.51257,-0.28302,0.17606,0.55858,-0.33405,-0.41068,-0.30854,0.023377,1.0177,0.66067,-0.28301,-0.25753,-0.2066,0.73716,0.12503,-0.35943,-0.76744,-0.66553,-0.30856,0.53309,0.048567,-0.027969,0.12505,0.15057,-0.35956,0.71165,0.96677,0.30358,0.023035,-0.5125,-0.64007,-0.23213,0.63509,-0.33412,-0.51251,-0.027852,-0.027895,-0.20646,-0.23196,0.35465,0.099521,0.81357,-0.181,-0.028018,-0.66562,-0.12995,-0.002491,0.38006,-0.078953,0.1251,-1.0227,0.50774,0.15062,0.023035,-0.79321,-0.002521,-0.35959,0.17614,1.0687,0.83913,-0.43615,0.22714,-0.13,-0.28305,0.074111,0.53328,-0.691,-0.79305,-0.35945,-0.35951,-0.15553,-0.23203,0.50765,0.55856,0.43096,0.38007,0.4056,0.25263,0.15068,-0.69096,-0.56351,-0.41054,0.048482,0.68609,-0.15554,-0.10445,-0.18098,-0.053439,-0.63998,0.71157,0.68605,0.35454,-0.35954,-0.078966,-0.30852,0.38017,0.12507,-0.053409,-0.53793,-0.48702,-0.25753,0.023041,0.50757,0.048391,0.73704,0.58405,-0.053464,-0.69104,-1.2011,-0.33384,-0.51244,-0.58921,-0.00257,1.0433,1.7063,0.32895,-0.25763,-0.69112,-0.89518,-0.46154,-1.0479,0.45671,0.55856,-0.10457,-0.00251,0.66054,0.81374,-0.30843,-0.20636,-0.43598,-0.33401,-0.18106,0.27803,0.40551,-0.053568,0.45658,0.15065,-0.12988,-0.28298,-0.79309,-0.46157,0.40551,1.6297,0.78808,-0.38515,-0.43599,0.15071,-0.41056,-0.002381,0.048653,-0.28303,-0.079008,0.63515,-0.002423,-0.64006,-0.66556,0.25251,-0.002583,0.68608,0.66065,-0.33393,0.022925,-0.53806,0.38016,0.099668,-0.23193,-0.79308,0.048634,-0.51257,0.5587,0.15059,-1.2778,1.1962,1.2472,0.45649,0.32902,0.63516,-0.078984,-0.76751,-1.2266,-0.76753,-0.81853,-0.10444,0.074038,0.76269,0.48206,0.89014,0.66062,-0.35953,-0.18097,-0.15548,0.074038,-0.28302,-0.1556,-0.46152,0.27814,-0.23194,-0.38495,-0.33391,0.43113,0.78811,0.66056,-0.71649,-0.181,0.073971,-0.35956,0.38007,0.1251,-0.41038,0.30352,-0.84406,0.15059,0.2526,0.09935,1.0942,0.15054,-0.027913,-0.89517,-0.51253,0.12508,0.55867,0.023047,-0.20652,0.27799,0.099534,-0.002448,-0.48704,-0.078972,0.50769,-0.1299,-0.35946,-0.28303,0.35458,0.04842,-0.61466,-0.38506,0.20164,-0.078904,0.099619,0.17609,0.12507,-0.053531,-0.23208,1.1196,0.6096,0.15043,-0.51245,-0.10439,-0.2319,-0.84405,-0.79316,-0.10445,-0.10446,0.17608,0.55862,0.68605,-0.79316,-0.18101,0.27809,-0.027889,-0.30847,0.27808,-0.13014,0.58418,0.38011,0.099595,-0.078984,-0.53805,-0.97161,-0.7421,0.30362,1.7062,0.09951,-0.002399,-0.002412,-0.18098,-0.53811,-0.2575,-0.002461,0.15064,0.45654,-0.002467,-0.15551,-0.18109,0.40551,0.60965,0.32921,-0.23197,-0.46147,-0.69091,-0.23198,-0.002552,-0.15552,0.20155,0.12504,0.66061,0.35458,0.023035,0.02295,0.38004,-0.18094,-0.15542,-0.15546,-0.30843,-0.23199,0.83906,0.50759,0.60957,-0.10444,-0.61454,-0.74205,-0.74201,0.30372,-0.053451,-0.15556,0.022956,0.58405,0.78817,-0.002454,-0.078959,-0.23199,-0.23202,-0.078984,0.53311,-0.15546,0.50755,0.22704,-0.64002,-0.53792,-0.33399,-0.027913,0.27802,0.17595,0.78806,0.278,-0.053397,-0.63995,-1.0991,-0.43601,0.1506,0.43115,-0.002497,0.17602,0.022937,0.43112,-0.053409,-0.20648,0.099546,0.38001,0.38018,-0.30853,-0.66559,-0.43603,0.38009,0.04858,-0.078972,-0.43606,-0.15545,0.20159,0.048536,0.048525,-0.20649,-0.027944,0.81361,0.66053,0.35451,-0.18095,-0.74195,-0.71648,-0.81859,-0.30854,0.9922,0.17605,-0.002485,0.048487,0.60955,0.2015,-0.13002,-0.53803,0.27815,0.023108,-0.51261,-0.15546,0.023096,-0.15549,-0.23202,0.25263,0.76275,0.32908,0.66051,-0.46169,-0.028011,-0.28302,-0.35953,-0.86963,0.30369,-0.18095,-0.12995,0.023047,1.3748,0.40551,-0.9207,-0.46154,0.20163,0.73717,0.073989,-0.51256,-0.3339,-0.20641,-0.002443,-0.38497,-0.053476,0.023005,0.53289,0.22698,0.15065,-0.027846,0.27815,0.12502,0.38004,-0.33411,-0.1555,0.48218,-0.53802,-0.028005,-0.18093,-0.053384,-0.20641,-0.81862,-0.48707,0.30353,0.38001,0.25249,0.66069,0.66064,0.20149,0.09957,-0.41049,-0.43595,-0.61452,-0.28297,-0.13001,0.048549,-0.053506,0.176,0.94117,0.22711,-0.053488,-0.283,-0.10456,0.45659,-0.15555,-0.18098,-0.43596,-0.89515,0.099632,0.68622,0.099608,-0.027969,0.15062,-0.46164,0.32899,0.43099,0.5075,-0.30848,-0.38492,-0.1554,-0.38505,0.17604,0.38011,0.38014,0.1251,-0.20653,-0.30852,0.048561,-0.07899,-0.23204,0.40554,0.32904,1.0687,0.073995,-0.81855,-1.2521,-0.23187,1.2472,0.38019,-0.15548,-0.56359,-0.25754,-0.51251,-0.002443,-0.25756,0.074057,0.099637,-0.43602,0.73715,0.8902,0.22699,0.43101,0.58408,-0.28305,-0.71656,-1.3031,-0.12998,-0.002443,-0.30852,-0.51259,-0.23198,-0.15551,0.35468,0.81375,0.60961,0.38001,0.15046,-0.28306,-0.13002,0.17605,-0.30844,-0.56349,-0.15536,-0.2319,-0.61456,-0.12996,0.45658,0.38007,-0.1301,0.38008,0.25257,0.12509,-0.23193,-0.053421,-0.053592,0.58408,0.32909,1.1451,0.27792,-0.79302,-0.99706,-1.2266,-0.5379,0.023139,0.074075,0.048512,-0.13006,0.63511,0.60963,0.074057,-0.053495,-0.10451,0.1506,0.32914,0.048561,-0.20652,-0.10446,0.35453,-0.02798,-0.18098,0.074038,0.074106,-0.38505,-0.38499,-0.10445,-0.18099,0.25254,-0.02798,0.3801,-0.05347,0.099515,-0.84403,-1.2265,0.76259,0.048536,-0.58902,0.2271,0.73703,0.32895,0.20156,-0.15537,-0.48689,-0.30847,0.023096,-0.33404,0.37998,0.71151,0.35451,0.35455,-0.053592,-0.20648,-0.23185,-0.76742,-0.28297,-0.002418,-0.002583,-0.28302,-0.51254,0.38019,-0.1045,0.09954,-0.23204,0.58412,0.73712,0.96665,-0.33408,-0.33399,-0.28293,-0.053519,-0.38513,-0.30841,-0.12987,-0.61459,-0.078904,0.76264,0.073879,0.83902,0.176,-0.25751,0.048653,-0.002326,-0.05339,-0.078941,-0.43605,-0.15555,0.099497,-0.12996,-0.002423,0.099626,0.76253,0.53305,-0.002461,-0.15545,-0.61451,0.38006,-0.43604,-0.33402,-0.15552,0.53311,0.55865,0.8902,0.048585,-0.64001,-0.61455,-0.35952,0.2015,-0.35966,-0.46153,0.30364,0.45662,0.35459,-0.078947,-0.2064,0.60967,0.86462,0.15049,-0.4361,-0.18106,-0.18103,-0.30855,-0.56351,-0.76757,0.68632,0.86466,0.022992,-0.25747,-0.13004,0.22702,-0.33404,0.25252,0.48217,0.074013,0.048598,-0.43602,0.048585,-0.078977,-0.2065,-0.23202,-0.053488,0.1506,-0.33401,-0.10444,0.32918,0.83906,0.48201,0.43098,-0.10443,-0.15548,-0.33396,-0.38497,-0.30854,-0.33399,-0.53795,0.30355,0.40559,-0.053562,0.83897,0.66063,-0.58903,0.22719,0.048683,0.15066,-0.33397,-0.76764,-0.53811,0.48207,0.30354,0.38008,-0.28303,-0.18098,0.099577,0.43115,0.1506,-0.28302,0.09954,-0.20656,0.32907,0.40563,0.32909,-0.38502,-0.53804,0.074118,-0.23197,-0.53814,0.71166,0.58414,-0.053568,-0.38503,-0.02792,0.17616,0.048536,-0.61458,-0.46154,-0.41052,1.0686,0.89011,-0.002479,-0.25754,-0.43607,0.074044,0.20162,0.60967,-0.20653,-0.12992,-0.28299,-0.69107,0.15054,-0.18101,-0.30855,-0.48706,-0.027901,1.0177,0.45666,-0.028023,0.2271,-0.027969,0.048494,-0.13005,-0.23198,-0.02795,-0.18094,-0.74209,0.3037,0.94129,0.50755,-0.15557,-0.43604,-0.078947,0.048616,0.04858,-0.1555,-0.15554,0.12503,0.15048,0.4821,-0.12998,-0.30843,-0.487,0.099564,0.53302,0.099521,-0.385,-0.15546,0.35461,-0.1555,-0.2065,0.3546,0.099436,0.27807,0.22709,0.4567,-0.33401,0.099503,0.30357,-0.053573,-0.56348,-0.61445,-0.79309,-0.12999,0.12508,-0.20659,0.68615,0.94124,0.94117,0.43095,-0.15552,-0.20653,-0.13,-0.15545,-0.05339,-0.30848,-0.334,0.074118,-0.25743,-0.25752,0.27805,0.40544,-0.35968,0.53329,0.48226,0.25261,0.40551,0.53298,-0.69118,-0.92059,-0.61451,0.048555,0.048536,-0.48696,-0.28294,0.25257,0.25256,1.0686,0.40561,-0.64003,-0.38499,0.27808,-0.33399,-0.20648,-0.13,0.32899,0.17606,0.099577,0.30362,-0.027907,-0.23204,-0.2576,1.2217,-0.23202,-0.38492,-0.12999,-0.58902,-0.078917,0.12509,0.27806,0.099503,-0.079021,-0.41054,-0.43603,-0.027944,0.55858,0.55857,0.023084,0.27809,-0.027944,-0.23197,-0.23199,-0.02798,0.073995,0.20154,-0.35951,-0.12999,0.099521,-0.53802,-0.28298,0.074033,0.17592,0.58411,0.43115,0.2782,-0.43604,-0.20644,-1.0225,-0.43604,0.45649,0.40549,-0.002552,0.48204,0.15054,-0.078977,-0.25739,-0.10428,-0.15538,-0.58902,-0.002491,0.048482,0.073953,0.20155,-0.053544,0.45658,0.4056,0.099521,-0.15545,-0.12993,-0.20649,0.20155,0.25253,0.27803,0.68615,0.099608,-0.69104,-0.69101,-0.33393,-0.51255,0.43108,0.30358,0.04842,0.09951,0.048567,-0.1555,-0.00251,-0.053427,0.38024,0.73718,0.27798,0.68604,0.099497,-0.25743,-0.89505,-1.0736,-0.5635,-0.10444,0.25262,-0.23196,0.91553,0.55852,-0.002467,0.20156,0.2526,0.32915,-0.30853,-0.53801,0.15066,-0.51252,-0.23201,0.176,0.17595,-0.2576,0.074093,0.048622,0.2781,0.074033,0.023023,-0.23201,0.30364,-0.079075,-0.46151,-0.25742,0.20166,0.023023,0.17602,0.38009,-0.33407,-0.48703,-0.078947,0.25257,0.48201,0.43113,-0.079002,-0.51264,0.07402,0.099675,-0.41043,-0.20646,-0.027987,0.35456,0.3291,-0.30851,-0.28302,-0.002454,0.023047,0.63507,0.35457,-0.3851,-0.23198,0.15061,0.27808,-0.027969,-0.74209,-0.61445,-0.33396,0.6606,0.38001,0.048561,0.68606,0.3036,0.023047,-0.48708,-0.58904,-0.027938,0.76271,0.30358,-0.56362,-0.74216,0.94129,0.81372,-0.43603,-0.28305,-0.58908,0.099497,-0.28302,-0.078966,0.30366,0.022986,-0.2065,0.17607,-0.027907,0.22712,-0.10454,0.30353,0.48206,-0.15553,-0.56351,-0.10444,0.15059,-0.38508,-0.2065,0.099588,0.22708,-0.1045,0.17612,-0.12998,-0.76771,0.53307,1.6299,0.35453,-0.5381,-0.66557,-0.48702,-0.58904,-0.43598,0.09957,-0.07899,0.76266,0.43112,-0.23197,-0.15545,0.45667,0.55848,0.35448,-0.58908,-0.3086,-0.18099,0.048641,0.25269,-0.66556,-0.51252,-0.078941,0.022974,-0.41057,-0.23201,0.86476,0.99212,0.45664,0.45651,-0.13009,0.3291,-0.18097,-0.69104,-0.63999,-0.69104,-0.12998,0.6096,0.17606,0.074051,-0.12997,-0.078928,0.45658,0.048445,0.94116,0.15055,0.023096,-0.30851,-0.64004,-0.38501,-0.35955,-0.078984,-0.23203,0.074033,1.0178,0.25262,0.20158,-0.46166,0.12502,-0.00243,-0.58909,0.15062,0.30356,0.32907,-0.38502,-0.053488,-0.027969,-0.18095,0.20156,0.022992,0.15054,-0.027987,-0.18097,-0.30846,-0.12998,-0.053476,0.91572,0.48218,0.58408,-0.20652,-0.38506,-0.4106,-0.30854,0.074062,-0.02795,0.099534,-0.18094,-0.053402,0.023078,0.099564,0.023005,0.2525,-0.2066,0.048536,0.35461,0.30363,0.38018,-0.15548,-0.56357,-0.51257,-0.56354,-0.078972,0.17608,0.15049,0.45659,0.63512,0.60967,0.53316,-0.027895,-0.81857,-1.0481,-0.053525,0.58405,0.12501,-0.28297,-0.078959,-0.20647,0.023059,-0.053458,0.35464,0.099515,0.43107,0.83914,-0.027969,-0.28302,-0.46154,-0.64001,-0.33401,0.17612,0.73709,-0.028005,-0.35955,-0.35954,0.50764,-0.10449,-0.23197,0.074118,0.048573,-0.10445,-0.33405,0.48213,0.53311,-0.053573,-0.30854,-0.027931,-0.02792,-0.20651,-0.002491,0.2525,-0.10452,0.63524,0.50771,-0.18101,-0.41054,-0.10447,-0.43604,-0.30849,-0.02795,-0.28307,0.25254,0.48216,1.2982,0.53303,-0.6146,-0.84404,-0.51246,0.074149,-0.20647,-0.12998,-0.10453,0.25256,0.45659,0.43108,0.17603,-0.0791,0.17608,-0.12992,-0.38496,-0.027882,0.023072,0.20159,-0.64014,0.048525,0.5076,0.074013,0.30355,0.04858,-0.61454,-0.5125,0.50771,0.83917,0.27797,0.40547,-0.10449,-0.41049,-0.9971,-0.20641,0.048561,0.45665,0.074008,0.20152,-0.18105,0.048555,0.023059,0.15052,-0.28299,-0.07891,-0.232,-0.58912,0.074057,0.50772,0.63521,0.023065,-0.20655,-0.43617,0.27808,0.15063,-0.30848,-0.25751,-0.10447,0.099515,0.32907,0.83909,-0.38499,-0.43602,0.099546,0.30355,0.30359,-0.12997,-0.2065,-0.18103,-0.15551,-0.46153,-0.027974,-0.48706,0.4311,0.78821,0.48216,-0.33407,-0.15549,-0.053451,0.22704,0.15055,-0.20648,-0.53806,-0.028011,-0.002485,0.3291,-0.6146,0.43118,0.3547,-0.10444,-0.35957,0.15046,0.22702,-0.53803,-0.002387,0.58416,0.53307,-0.12998,-0.61456,-0.25748,0.5842,-0.10446,-0.53804,0.048598,0.12512,-0.053476,-0.027998,-0.15551,-0.18103,-0.13004,0.048506,0.12505,-0.053421,-0.41052,0.27817,-0.002436,0.099528,0.048536,0.073989,-0.20655,-0.25754,-0.15551,-0.10443,-0.12995,-0.027895,0.3291,0.074002,0.35448,0.25257,0.40569,0.25265,-0.2065,-0.35955,-0.10448,0.04858,0.20162,0.35461,0.15054,-0.41057,-0.15549,-0.053464,-0.18103,0.58414,0.25256,-0.38503,-0.15546,0.50762,0.76264,-0.38512,-0.64008,-0.5125,-0.15547,-0.30851,-0.61457,0.25264,-0.10438,0.83905,0.71149,0.17597,0.048531,-0.53809,-0.18098,-0.002412,-0.10447,-0.46153,-0.23196,-0.027931,0.50766,0.91557,0.073917,-0.28302,-0.20647,-0.181,0.20158,-0.027993,0.12513,0.15054,-0.28302,-0.53812,0.099588,0.15057,-0.28304,-0.86969,0.25259,0.91578,1.1453,0.176,-0.46155,-0.43604,-0.33403,-0.002485,-0.23197,-0.12995,-0.078935,-0.12995,-0.027925,0.17608,0.17604,0.66061,0.074008,-0.028018,-0.20647,-0.41051,-0.20647,-0.053464,0.20155,0.58407,0.35459,-0.10454,0.17611,-0.48705,-0.12995,-0.20647,-0.10447,-0.07899,0.55857,-0.64018,-0.33401,0.68626,0.63523,0.22697,-0.33409,0.074062,-0.18097,-0.30848,-0.30851,-0.41053,0.17611,0.45658,0.60957,0.27803,-0.30849,-0.15547,0.099583,0.40569,0.25267,-0.53801,-0.51256,-0.46161,0.22698,0.38006,-0.002448,-0.12996,-0.18104,0.81371,0.099521,0.40561,0.048561,-0.28297,-0.35954,-0.28306,-0.10459,-0.46152,-0.30846,-0.20641,0.53321,0.099552,0.099546,-0.18108,0.2526,0.20159,-0.20655,0.50771,0.1761,-0.12996,-0.33398,-0.28308,-0.002552,-0.10452,0.074093,-0.232,-0.027962,0.074038,-0.18106,0.48217,0.22712,0.1761,-0.15554,-0.15553,-0.51259,-0.10451,0.22699,0.96658,0.60973,-0.33394,-0.28292,-0.53803,-0.41049,-0.33401,-0.2065,-0.002485,0.40563,0.17604,0.6861,0.45656,0.17604,-0.002485,-0.41052,-0.027889,-0.33401,0.04858,-0.053464,-0.38506,-0.15551,0.40561,0.27795,-0.35954,0.12513,0.1251,0.099583,-0.18099,-0.28303,-0.12999,0.45656,0.15052,0.15055,-0.48706,0.2016,0.3547,0.27815,-0.46154,-0.18106,-0.053513,0.073984,0.22706,0.12512,-0.25749,-0.25748,-0.25746,0.43101,-0.13003,-0.18103,0.63521,0.71164,-0.10449,-0.33397,-0.48701,-0.20649,0.048518,0.38002,0.073977,0.20156,0.45663,0.27809,-0.28294,-0.64005,-0.38499,-0.46156,0.32913,0.22709,0.50758,-0.15551,-0.078977,-0.002461,-0.053519,0.12508,0.12513,-0.18103,-0.33408,0.3291,-0.027962,-0.053519,-0.18106,0.09957,0.63526,-0.13,-0.20653,0.20161,-0.20653,-0.66558,0.023065,0.38013,0.20153,-0.027938,-0.23198,-0.027956,0.30361,-0.18099,-0.23201,-0.1555,0.4056,-0.33401,0.1505,0.15054,-0.078935,0.048567,-0.05347,0.2015,0.099485,0.38014,-0.18097,-0.56353,-0.53809,0.17612,0.15064,-0.30851,0.22708,0.32903,-0.053622,0.25254,0.22711,-0.027969,-0.15552,-0.10447,0.12508,0.048616,-0.51257,-0.33401,0.27817,0.20162,0.40558,-0.20657,-0.51255,-0.38508,0.43105,0.73715,-0.079021,-0.30847,-0.25747,-0.51256,0.30363,0.25261,-0.38507,0.099577,0.50766,0.53313,0.048494,0.048469,-1.0482,-0.30848,0.38017,0.38016,0.07402,-0.43612,-0.33402,0.12509,0.2016,-0.18098,-0.0535,0.048531,0.40557,-0.027962,0.048629,-0.53806,0.074118,0.66075,0.60967,0.32899,-0.2321,-0.35957,-0.38505,-0.028018,0.023059,-0.41055,0.12518,0.099613,-0.58908,-0.002443,0.43117,0.22701,-0.10459,0.15056,-0.12998,-0.02798,0.17615,0.73723,0.17601,-0.48707,-0.43607,-0.23202,0.12505,-0.181,-0.18098,-0.283,0.45669,0.023059,0.25258,0.30358,0.20159,-0.30856,-0.28304,0.023005,-0.4361,0.1506,0.71176,0.32915,-0.23203,-0.38504,-0.028018,0.15054,-0.079002,-0.027962,0.074087,0.12512,-0.053433,-0.43606,-0.23204,0.048512,0.20153,0.15054,-0.027974,0.22711,0.099577,-0.15547,-0.41053,0.66077,0.8392,-0.20658,-0.35957,-0.43601,0.023065,0.07402,0.073995,-0.6401,0.023096,0.63522,0.17604,0.048518,-0.25753,-0.33405,0.15052,0.60969,0.074081,-0.053458,-0.23197,-0.7166,0.2526,0.48213,0.30353,0.35449,0.27809,-0.18098,-0.41049,-0.84411,-0.20647,0.35468,0.58417,-0.027962,-0.079026,0.2015,0.12494,0.30356,-0.2319,-0.15538,-0.28297,-0.053402,-0.053446,-0.15552,-0.13001,-0.13002,-0.30856,-0.053495,0.40558,0.2526,-0.002467,-0.078953,0.20165,-0.15546,-0.30854,0.2781,0.25251,0.20149,-0.30849,-0.46151,0.048573,-0.10445,-0.10453,-0.38509,0.45663,0.48214,0.074033,0.074069,0.023023,-0.027993,0.074081,-0.12996,-0.23199,0.25265,0.3291,0.30355,0.8136,-0.13005,-0.74212,-0.35949,-0.30849,-0.10445,-0.51252,-0.30852,0.20155,0.20149,0.227,0.86472,0.30363,-0.078972,0.22713,0.15059,-0.33408,-0.48708,-0.33404,0.074026,0.20153,0.25257,0.048598,-0.56358,0.45673,0.40573,0.074038,-0.1045,-0.2065,-0.18101,-0.13002,-0.13002,-0.10444,0.27806,-0.002412,-0.23199,-0.027925,0.12503,-0.41054,-0.15542,0.20154,0.30351,-0.00251,-0.28301,-0.41049,-0.334,-0.33398,0.60973,1.1708,0.86457,0.048402,-0.56361,-0.20647,-0.25751,-0.51254,-0.15549,-0.12999,0.43109,0.3291,-0.1045,0.0741,0.48216,0.22706,0.1505,-0.3085,-0.33399,-0.25753,0.048531,-0.002479,-0.35957,0.30362,0.30361,0.78818,0.25261,-0.385,-0.48702,-0.12998,-0.13004,0.30353,0.27803,-0.23201,-0.33398,-0.18099,0.30363,0.30353,-0.078984,0.55869,-0.078959,0.023108,-0.35957,-0.38507,-0.58911,0.15055,0.17606,0.83915,0.32913,-0.35945,-0.25749,-0.25751,-0.10454,-0.10449,0.50767,0.22707,-0.30853,0.074124,0.20158,0.22708,-0.20658,-0.5381,-0.5126,0.4056,-0.053427,-0.23197,-0.15545,0.099583,0.4567,0.32914,0.45658,-0.25754,-0.71666,-0.0535,-0.027993,-0.28305,0.25262,0.68627,0.4056,0.22697,-0.35959,-0.30851,-0.28304,0.048555,0.30362,0.45669,-0.30853,-0.56359,-0.51256,0.27815,0.78821,0.073965,0.43106,0.023054,-0.56354,-0.56355,-0.53804,-0.078947,0.32912,0.53307,0.15052,-0.43612,0.2526,0.27809,-0.20651,0.20159,0.66077,0.15063,-0.334,-0.15551,0.022974,0.15052,-0.23204,0.074111,-0.232,-0.1045,0.074038,0.099534,-0.053495,-0.079014,0.074038,0.20164,0.22713,-0.12999,-0.15552,-0.15554,-0.027998
