-0.07899,-0.027962,0.048555,0.15057,0.17607,0.099559,0.099552,-0.05347,-0.13,-0.18098,-0.10447,-0.10448,-0.12998,-0.078972,-0.027962,0.048561,0.074057,-0.027974,-0.13,-0.13,-0.12999,-0.181,0.048543,0.099546,0.12504,0.20156,0.12505,0.074038,0.099546,0.023041,0.023029,-0.078977,-0.05347,-0.078984,-0.05347,-0.002461,0.074044,0.074044,0.048543,0.023029,-0.078984,-0.053495,-0.12999,-0.027974,-0.002467,0.074069,0.074062,-0.002479,0.09954,-0.002472,-0.027974,-0.027956,-0.027956,0.099546,0.22708,-0.002454,-0.078959,0.048525,-0.053482,-0.283,-0.18098,-0.12994,-0.12998,0.40558,0.023023,0.048567,-0.1555,0.09954,0.0485,-0.35952,0.048543,-0.027938,0.023035,-0.33396,0.40556,0.27805,0.25256,-0.487,0.023047,0.176,-0.13006,-0.079008,-0.23195,0.023072,0.43111,0.023054,-0.15546,-0.15548,0.12505,0.27805,0.12499,-0.12999,0.04858,0.32914,0.25258,0.38008,-0.12998,-0.12996,-0.2065,-0.15546,-0.13,-0.15549,-0.1045,-0.10444,0.27811,0.074038,0.022992,-0.33405,-0.23204,-0.002461,-0.10447,0.12506,-0.053451,-0.002454,-0.078996,0.048543,0.17607,0.32907,-0.28301,-0.35953,-0.10449,-0.28297,-0.28298,0.074087,0.50766,-0.002497,-0.10458,0.048506,0.63515,0.22706,-0.079014,-0.35953,0.20161,0.074081,-0.02795,-0.053451,-0.10447,-0.12999,-0.15551,-0.20653,-0.18101,0.023047,0.074081,0.074038,-0.027987,0.022998,0.15057,0.023059,0.09957,0.023029,0.099503,-0.027962,-0.35951,-0.078947,0.15058,0.12508,0.22708,-0.07899,-0.078984,-0.28302,-0.15548,0.023059,-0.33406,-0.23207,0.15057,0.32911,0.1761,0.17609,-0.05347,-0.078984,-0.078984,-0.053464,-0.13001,-0.33402,0.27808,0.2526,0.12507,-0.002485,-0.078984,-0.053476,0.048561,-0.25749,-0.30852,-0.002491,0.25259,0.3291,0.099583,-0.027962,0.074013,0.023029,-0.078972,-0.18098,-0.28303,-0.13002,0.023029,0.1761,0.2271,-0.07899,-0.30856,-0.30854,0.20157,-0.078972,0.023072,0.25258,-0.1045,0.074051,0.17606,-0.002485,-0.053495,-0.053495,-0.13,-0.23196,-0.027944,0.15054,0.20158,0.074044,0.099564,-0.23204,-0.20652,-0.18101,-0.23198,-0.12997,0.074062,0.30355,0.22708,0.43108,-0.05347,-0.3085,-0.15548,-0.12999,-0.283,-0.2065,0.09954,0.22706,0.15054,-0.027974,0.20159,-0.053482,-0.053495,0.048518,-0.1045,-0.15551,-0.12994,0.048592,0.17609,0.099559,-0.002485,-0.002485,-0.028005,-0.078977,0.099588,-0.1555,-0.053488,-0.027987,0.22706,0.023054,-0.18097,-0.078972,-0.12999,-0.079008,-0.20651,0.023047,0.22708,0.20157,0.12509,-0.053476,-0.15549,-0.15549,0.099552,0.15053,0.0485,-0.10447,-0.33399,0.09957,0.22707,0.3546,0.3291,0.023041,-0.20652,-0.027969,0.074051,0.048543,-0.20652,-0.1045,-0.002443,-0.12998,0.048555,0.099546,-0.002443,0.048555,-0.20652,-0.23204,0.023023,0.17609,0.2526,0.074062,-0.18098,-0.15549,0.048531,-0.053482,-0.25749,-0.15548,-0.05347,0.27809,0.15057,0.20155,0.22708,0.30361,-0.002461,0.12507,0.048543,0.048567,-0.10446,-0.02798,0.048531,0.09957,0.074038,-0.15549,-0.1045,-0.02798,-0.15552,0.048555,0.17609,-0.23198,0.12508,0.32907,0.023041,-0.25751,0.023047,0.048549,-0.05347,0.048518,-0.027993,0.12504,0.023072,0.023059,0.12504,0.12507,0.048531,-0.15549,-0.078959,-0.15546,-0.15549,0.023029,0.048555,0.12505,-0.05347,-0.1045,-0.053495,0.023041,-0.078966,0.12506,0.099564,0.12504,0.15057,0.023059,-0.30854,0.074044,0.17607,-0.027987,-0.46155,-0.25751,0.023029,0.09957,0.17607,0.50763,0.35459,-0.23201,-0.28304,0.023023,-0.05347,-0.15545,-0.33399,-0.18101,0.12502,0.25257,0.20159,0.048549,0.099515,-0.25752,-0.20648,-0.10445,0.099588,0.12505,-0.028023,0.023035,0.15058,0.023041,0.12507,0.22707,-0.053519,-0.71665,-0.027944,0.074087,0.2271,0.32909,0.50762,-0.078953,-0.43604,-0.25753,0.099534,-0.053476,-0.05347,0.023029,0.25257,0.32909,0.17604,-0.18099,-0.12998,-0.15548,-0.10445,-0.2575,-0.20652,0.17607,0.30359,-0.12999,0.099564,0.17608,0.048549,-0.38503,-0.28303,-0.053482,0.27811,0.074075,-0.23199,0.15052,0.25255,-0.15549,-0.283,-0.053446,-0.15547,0.048567,0.023041,-0.053488,0.12504,0.22707,0.22707,-0.078966,-0.23202,-0.25756,0.12505,0.023059,0.099577,-0.002448,0.09957,0.20157,-0.18103,-0.078984,-0.053464,-0.027938,-0.05347,-0.027944,-0.078972,-0.002503,0.048482,0.30358,0.17607,0.048567,-0.027944,0.023059,0.023054,-0.002485,-0.15555,-0.15549,-0.002436,0.15058,0.099564,-0.10449,0.023029,-0.002454,0.048555,0.048549,0.30357,0.17607,-0.23201,0.023047,-0.002454,-0.15548,-0.25754,-0.30857,0.048549,0.17609,0.22708,0.099534,0.12504,0.2781,0.17609,-0.12999,-0.10449,0.15059,-0.2065,-0.20648,-0.10447,0.074038,0.0977,0.1232,0.25071,0.1487,0.1487,0.1232,0.20155,-0.07899,-0.078972,0.023023,0.15055,0.25258,-0.053482,0.048512,0.15054,0.15054,-0.078947,0.12509,-0.027944,-0.078977,-0.027987,0.099552,-0.079021,-0.053488,0.15059,-0.002461,-0.027969,0.15057,-0.10447,-0.078966,-0.027974,0.15051,0.074033,-0.10446,0.048555,0.074069,-0.078966,-0.15548,-0.1045,0.048531,0.15055,0.22709,0.048543,-0.15549,-0.181,-0.30851,0.048567,0.048512,-0.10452,0.099534,0.074062,-0.053458,-0.053488,0.099564,0.32912,0.048536,-0.28303,-0.25753,0.099577,-0.20653,-0.20652,0.074069,0.27808,0.15056,0.074051,0.048518,-0.181,-0.12999,-0.078972,0.12505,-0.079021,-0.18102,-0.002461,-0.002472,0.048567,0.12509,0.12507,-0.002418,-0.20647,-0.027974,-0.07899,-0.078996,-0.18105,-0.053519,-0.078959,-0.002423,0.048555,0.099588,0.25259,0.074038,-0.15549,0.023029,-0.181,-0.15548,-0.25753,-0.027974,0.30357,0.25259,0.12508,-0.20649,-0.25751,-0.25752,0.2526,0.12508,0.074062,-0.027938,-0.10449,0.023029,0.22704,-0.027962,-0.078959,-0.053476,-0.079002,0.099534,-0.027962,-0.027962,0.048567,0.023065,-0.078959,-0.053476,-0.25753,0.099577,0.25254,0.25255,-0.25754,-0.05347,0.15059,-0.002443,-0.078953,0.1506,-0.027974,-0.15553,-0.079008,0.074013,0.25253,-0.053488,-0.25748,0.023072,0.09957,-0.053464,-0.10448,-0.15549,0.12507,0.023035,0.048549,-0.053482,0.074062,0.074044,0.12506,0.074033,-0.13003,-0.078996,0.099564,-0.181,0.17609,0.2016,0.2271,0.048561,-0.23201,-0.05347,-0.15556,-0.13005,-0.05347,0.074087,-0.078953,0.048555,0.12505,-0.053476,0.15055,0.15054,-0.027993,-0.13001,-0.078977,0.074051,0.04858,0.074062,0.09957,0.22709,-0.027938,0.023041,0.12503,0.074038,0.074081,-0.002448,-0.02795,-0.05347,-0.053439,-0.10444,-0.00243,-0.027987,-0.002472,0.27809,0.023054,-0.181,-0.12997,-0.10444,-0.027925,-0.00243,-0.078959,-0.20653,-0.053495,0.074033,-0.079008,-0.078972,-0.053482,0.023047,0.074093,-0.078941,-0.078966,-0.13001,-0.20652,-0.053495,-0.027998,0.048518,-0.002467,-0.002418,-0.12994,-0.10447,-0.0535,0.20158,0.074026,0.099546,-0.053495,0.023041,-0.12996,0.17609,0.12507,0.12509,-0.23202,-0.028011,-0.053488,-0.027969,-0.07899,0.048531,0.074069,-0.027956,-0.027925,-0.1045,-0.30852,0.20161,0.17609,0.023041,0.048536,0.12504,0.09954,0.023029,-0.10447,-0.13,-0.002485,-0.027998,0.099528,0.15053,-0.02798,-0.25751,-0.23199,0.2016,0.12507,0.074062,-0.05347,-0.13001,-0.1555,0.048555,0.048536,0.074026,0.048512,-0.002479,-0.053464,-0.10447,-0.078977,0.38008,-0.10448,-0.10448,-0.078984,0.048536,0.15056,0.15058,-0.35954,-0.28301,0.023054,0.30354,0.074044,-0.10447,0.074057,-0.00243,-0.002461,-0.10447,0.09957,0.17605,0.12505,-0.002472,-0.10447,-0.181,-0.12998,-0.002461,0.099559,-0.027969,-0.10447,0.074075,-0.079014,-0.002497,0.048525,0.12506,-0.002448,-0.002443,-0.053506,0.074087,0.048585,-0.20648,-0.23202,-0.13005,0.30358,0.40561,-0.027962,-0.15548,0.099552,-0.079002,-0.181,0.2271,0.50764,-0.25756,-0.64013,-0.05347,0.2271,0.15062,0.09957,-0.027969,-0.12998,-0.053464,0.048561,-0.053495,-0.02798,0.048525,0.074008,0.048518,0.17608,-0.027938,-0.02795,-0.10447,0.048555,0.048543,-0.15551,-0.0535,0.074026,0.048531,0.15059,0.074057,0.023084,-0.078947,-0.13,0.15053,-0.027962,0.17606,-0.079021,-0.002503,-0.002423,-0.15548,-0.35952,-0.18098,0.048561,0.12507,0.17606,0.15054,0.048536,0.048536,0.048525,0.048543,0.023072,-0.20646,-0.027956,-0.13001,-0.25753,0.023023,0.25255,0.22706,-0.002443,-0.002436,0.12507,-0.18098,-0.027956,-0.05347,-0.15548,-0.15549,-0.027987,0.023017,-0.10452,-0.002461,0.22708,0.074044,-0.1555,-0.078972,-0.002472,0.099552,0.07402,-0.053464,0.12509,0.099559,-0.18097,-0.078972,-0.10447,-0.20653,-0.053519,0.17604,0.17605,0.074044,-0.30852,-0.13001,0.074081,0.12504,-0.10451,-0.078996,0.023023,-0.027974,-0.078996,0.12505,0.048555,0.17607,0.12509,-0.027925,-0.15547,-0.002479,0.048531,-0.13003,-0.079014,-0.028018,0.15059,0.1506,0.048585,-0.078941,-0.027987,-0.027974,-0.002472,0.048518,0.099534,0.22705,0.27808,-0.027969,-0.30848,-0.28295,-0.00243,-0.079021,-0.18103,0.074013,0.15057,0.023035,0.099577,0.12508,-0.053451,-0.10448,-0.15549,0.048543,0.17608,0.023041,0.023065,-0.053446,-0.078935,-0.15548,0.048555,0.15057,-0.053488,-0.10455,0.12505,0.099564,0.12503,0.074057,0.099577,-0.10446,-0.12998,-0.12995,-0.002485,-0.002485,-0.002491,-0.053476,0.12504,0.22708,0.099564,-0.15552,-0.30853,0.048585,0.048549,0.074033,0.12507,-0.078959,-0.078984,-0.15553,0.048536,-0.15553,-0.078984,0.048585,0.30364,0.12505,-0.078984,-0.002503,0.15054,0.048555,-0.053446,-0.027956,-0.053446,-0.10447,-0.002454,0.17604,0.048525,0.048518,0.074051,0.074062,-0.181,-0.25751,0.074081,0.15057,-0.002461,-0.002485,-0.027974,0.12505,0.023059,0.023065,-0.15548,-0.027962,0.023029,0.023035,0.048531,0.17606,-0.053488,-0.10447,-0.053495,-0.02798,0.099583,0.023096,-0.053427,-0.027956,-0.027969,-0.078996,-0.1045,-0.10452,-0.07899,0.074044,-0.027969,-0.027962,-0.027969,0.17609,0.12505,-0.053488,-0.20653,-0.18103,0.023041,0.27811,0.17609,-0.002418,-0.15546,-0.10445,-0.027956,0.023029,0.048536,0.02301,-0.10451,0.048512,-0.027944,-0.078947,0.099608,0.15059,0.023047,0.074051,-0.002467,-0.10453,-0.23203,0.12509,0.048561,0.048567,0.023041,0.099534,0.074026,-0.10451,-0.10449,-0.07899,-0.053464,-0.10446,0.048561,-0.053476,-0.053476,-0.027962,0.25257,0.15054,-0.18105,-0.28305,0.2526,0.099564,0.023029,0.023084,-0.002418,-0.12995,-0.181,-0.002472,-0.002503,-0.12999,-0.002485,0.22706,-0.002479,-0.23203,-0.078977,0.43115,0.023065,-0.053488,-0.20654,0.22705,-0.027944,0.17609,0.02301,-0.053464,-0.20648,-0.10447,0.099534,-0.13001,0.12504,-0.002472,0.048536,-0.053482,-0.078984,0.023072,0.023078,-0.12997,-0.027969,-0.1045,0.023005,0.12504,0.099564,0.023035,-0.002448,0.12512,-0.078947,-0.33404,-0.13002,-0.079014,0.074069,0.20158,0.074069,-0.027938,-0.12998,-0.15553,-0.053488,0.09957,0.17604,0.22706,0.048525,-0.15548,-0.25748,-0.2065,0.023047,0.17607,0.12507,0.12507,0.22707,-0.10449,-0.2065,-0.15552,0.048536,0.17607,0.074051,-0.053464,-0.12995,-0.027962,0.023023,-0.002485,-0.002472,-0.027974,0.048549,0.20156,-0.12997,-0.20647,-0.05347,-0.078984,0.023023,-0.002491,0.023035,-0.002479,-0.1555,-0.078984,0.099577,-0.027938,0.099577,0.17609,-0.002454,-0.053446,-0.13,-0.35957,-0.18103,0.15056,0.25259,-0.18097,-0.23201,-0.23203,0.17607,0.09954,0.074008,-0.079002,0.048518,0.074038,-0.02795,-0.053458,-0.027907,-0.12998,-0.15552,0.12505,0.048567,0.048549,-0.027962,-0.05347,0.074044,-0.053464,-0.15547,-0.053476,-0.053506,0.12502,0.048555,-0.002443,0.048561,0.25259,0.12509,0.023047,-0.23199,-0.027974,-0.027998,0.12504,-0.002472,0.023029,-0.078966,0.023047,-0.002467,-0.027969,-0.20649,-0.053482,0.048525,0.07402,-0.10449,-0.002479,0.12504,-0.07899,0.074069,0.27811,0.12508,-0.232,-0.18101,-0.053458,0.099588,0.1251,-0.079008,-0.15554,-0.053482,0.04858,0.023072,-0.002479,0.048543,-0.078984,0.048531,0.023041,-0.05347,-0.12999,-0.079002,0.074057,-0.002436,-0.053451,0.09957,0.048536,-0.027993,-0.053488,-0.10451,0.048512,0.074062,0.074069,-0.078935,-0.12998,0.023059,0.09954,0.15053,-0.079008,0.023035,-0.027962,0.09957,0.074081,0.074087,-0.05347,-0.18101,-0.002479,-0.002491,-0.00251,-0.053513,0.048555,0.048567,0.074087,0.1251,0.099577,0.048531,-0.12998,0.023023,0.22703,-0.15553,-0.20649,0.074093,0.074118,-0.283,-0.10449,0.099534,0.17607,0.074026,0.048536,0.074051,0.15057,0.023059,-0.10445,0.023041,-0.12999,-0.053488,-0.079002,-0.053482,0.15054,0.17603,0.023059,-0.10444,-0.12995,-0.053446,-0.002472,-0.13005,-0.079021,0.20159,0.023059,0.12507,0.2271,0.074033,-0.25751,0.023054,0.20159,0.25256,-0.18099,-0.20649,-0.13001,-0.027974,-0.053495,-0.10449,0.12507,0.12507,-0.002467,-0.027974,0.099552,0.32907,0.048518,-0.078972,-0.15548,-0.15545,-0.078966,-0.002472,0.074051,0.074044,0.023017,0.099521,0.023023,0.023084,-0.002448,-0.10451,-0.078959,0.25262,-0.02795,-0.00251,0.25255,-0.027962,-0.079002,-0.15551,-0.002443,0.048573,-0.002423,0.074062,0.023029,0.048531,0.048518,-0.07899,-0.079002,-0.002443,-0.053451,0.023023,-0.002461,0.023047,0.12508,-0.027974,-0.027998,0.048536,0.099564,-0.15548,-0.002472,-0.1555,-0.10447,-0.027962,0.15056,0.12504,0.023023,0.074044,-0.027956,-0.12998,-0.053482,-0.1555,-0.078972,0.048567,0.12506,-0.078984,-0.002472,-0.002467,0.048469,-0.30855,-0.078941,0.25262,0.099564,0.023047,0.099583,0.17605,-0.181,0.023041,-0.079002,-0.078984,-0.078977,-0.053495,0.074062,0.074051,-0.15548,-0.10446,-0.002467,0.048525,0.09951,0.074044,0.023072,0.04858,0.048536,-0.13002,-0.002461,-0.027969,-0.027956,0.023047,-0.05347,0.12505,0.12504,-0.027987,-0.10444,-0.078959,-0.079002,-0.10449,-0.078972,0.15055,0.099521,0.20155,0.048536,-0.20652,-0.25752,-0.027956,0.12504,0.023017,0.09957,-0.002485,-0.10448,-0.053458,0.12505,0.023047,-0.002454,-0.18099,-0.07899,-0.053482,0.074057,-0.23204,-0.079002,0.074062,0.023035,-0.05347,0.023041,0.15058,0.12508,0.099559,-0.18098,-0.078996,-0.13004,-0.18103,0.22708,0.15057,0.12508,0.074087,0.099583,-0.02795,-0.20653,-0.15551,0.048531,-0.078984,-0.10448,-0.12999,0.27808,0.20156,0.099552,-0.12998,-0.05347,0.074051,0.023029,0.09954,0.023047,-0.2065,-0.027969,0.099564,-0.053451,-0.078984,0.12505,-0.027974,-0.05347,0.074038,0.27806,-0.053476,-0.078959,0.023059,-0.05347,-0.10449,-0.053488,0.048536,-0.002461,0.074044,0.22709,-0.13001,-0.43608,-0.12998,0.32911,0.22708,0.12508,-0.002479,-0.027969,-0.20649,-0.181,-0.10447,0.12506,0.12507,0.023054,-0.079008,0.023023,-0.002503,-0.10449,0.099559,0.074062,-0.002443,-0.078959,-0.20649,0.12505,0.048525,-0.002491,-0.002467,0.023041,-0.078953,0.074062,-0.002467,-0.053476,-0.078972,-0.1045,-0.18104,0.048518,0.17607,0.048543,-0.20655,0.023023,0.40561,0.15057,-0.002461,0.048567,-0.05347,-0.027969,-0.05347,-0.002467,0.099559,-0.002443,0.099559,0.023035,0.02301,-0.053482,-0.028005,0.099534,0.15054,-0.053458,-0.23198,-0.053458,-0.027974,-0.027962,0.023072,0.048555,-0.002472,0.023041,-0.027987,-0.13001,0.30358,-0.078972,0.023084,0.074038,-0.027956,-0.18099,-0.002467,0.25257,0.074038,-0.48709,-0.4106,-0.002436,0.12508,0.20159,0.17609,0.22707,0.099528,-0.15551,-0.1555,0.023054,-0.053433,-0.002467,0.048573,-0.002448,-0.10447,-0.12999,0.022998,-0.079002,-0.078996,-0.1045,0.074038,-0.002461,0.074062,-0.027962,-0.20653,0.12504,-0.10448,0.12508,0.023035,-0.18101,0.048543,0.17606,-0.002461,0.023059,-0.078972,-0.078977,-0.18101,0.023059,0.20158,-0.1045,-0.028018,0.023029,-0.027956,0.099564,0.12507,0.099552,0.048536,0.27806,-0.027962,-0.10449,-0.05347,0.023029,-0.23201,-0.38505,-0.15548,0.074081,0.074038,0.22708,0.20155,0.074038,-0.078972,-0.053482,0.023041,-0.002461,0.15057,-0.18098,-0.15548,-0.053476,-0.002461,-0.12998,-0.10449,0.023029,-0.027969,0.15056,-0.10447,0.074057,-0.027956,-0.078959,-0.07899,-0.027974,0.25255,0.12507,-0.12999,-0.13,0.074081,0.15057,0.074044,0.099552,0.023035,-0.20649,0.023041,0.023041,-0.20652,0.074057,0.099559,0.074051,-0.20652,-0.1045,-0.002503,0.048525,0.023035,-0.002436,-0.053451,-0.10449,-0.05347,-0.002461,0.074044,0.074051,0.099521,-0.18102,0.048512,0.099577,-0.027969,-0.053446,-0.10449,0.09957,0.12504,-0.078996,0.048536,0.048531,0.099534,0.048555,-0.12997,-0.078966,-0.10448,0.048525,-0.10449,0.074033,0.25256,-0.002461,-0.002461,-0.10448,-0.18102,0.023059,0.15058,0.048549,-0.12999,-0.002461,-0.002485,-0.13,0.099546,0.099564,0.023065,-0.078966,-0.027993,-0.053488,0.074026,0.17607,0.023035,-0.18103,-0.18103,0.12509,0.22712,0.1251,-0.02795,0.20152,-0.10451,0.048525,-0.002467,0.023047,-0.10448,-0.15548,0.1761,-0.053439,-0.053513,0.07402,0.3291,0.048536,-0.18101,-0.002443,-0.002461,-0.13,-0.15549,0.2271,0.048561,0.074051,-0.053482,0.12505,-0.078977,-0.02798,-0.13001,-0.002472,-0.053458,0.2016,-0.053451,-0.027987,-0.13,-0.078977,0.12505,0.12504,-0.1045,-0.181,-0.027962,0.074093,0.43113,-0.053482,-0.28307,-0.10449,0.09957,-0.02798,0.074038,0.099552,-0.002461,-0.002443,-0.10447,-0.002443,-0.053476,0.074051,0.022998,-0.00251,-0.053482,0.074069,-0.027944,-0.181,-0.25751,0.12507,0.25257,0.048536,0.09954,-0.1045,-0.15546,-0.05347,-0.078959,-0.07899,-0.079002,0.12506,0.30359,0.27808,-0.12999,-0.2065,-0.28302,-0.02795,0.023065,-0.027938,-0.053433,0.023029,0.048476,0.023035,0.023035,0.099546,0.099534,0.023017,-0.078966,-0.18098,-0.027969,0.12504,0.048536,-0.12999,-0.18101,0.048555,0.023059,0.048567,0.15058,0.023035,0.15055,0.12502,-0.053464,0.048561,-0.027969,-0.078984,-0.23199,-0.2575,0.048549,0.17607,0.17607,0.048555,-0.10448,-0.002467,-0.053476,0.099534,-0.027993,-0.30852,0.023084,0.17612,0.099552,-0.079014,-0.00251,-0.002479,0.04858,0.12507,0.074038,0.17605,-0.1555,0.074069,-0.078953,-0.20649,0.023047,-0.053495,0.099515,0.20155,0.17607,0.074075,-0.027944,-0.15548,-0.15549,-0.002485,-0.0535,0.023029,-0.02798,0.099559,0.15057,0.099564,-0.027969,-0.053458,-0.027969,0.048531,0.17606,-0.079002,0.023023,-0.053495,0.023065,0.023065,0.048536,-0.10446,-0.002436,0.074044,-0.1555,-0.181,0.32905,0.15052,0.048549,-0.078941,-0.053439,0.023054,-0.053451,-0.027974,0.099534,0.048512,-0.027993,-0.078984,0.099564,-0.181,-0.41058,-0.181,0.25259,0.20158,0.12507,0.15056,-0.15552,-0.1555,-0.027969,0.023029,-0.10446,-0.10446,0.17608,0.048525,-0.2575,-0.23198,-0.002479,-0.15551,0.099564,0.023047,-0.12997,-0.053427,0.15056,0.25253,0.12502,-0.002467,0.048555,-0.12997,-0.053464,-0.15548,-0.23199,-0.10447,0.023047,0.048536,-0.002503,0.023059,-0.078984,-0.23201,-0.20652,-0.027987,0.32912,0.30361,0.048567,-0.053476,-0.15549,-0.028005,-0.078996,-0.002485,0.20156,0.023054,-0.078941,-0.33401,-0.15548,-0.002479,0.17603,-0.053458,0.074044,0.048549,0.074057,0.023023,-0.1045,-0.078966,-0.053458,0.023054,0.074051,0.048506,-0.13002,0.074038,0.074062,-0.078959,0.048543,-0.027962,0.048549,0.12507,0.099559,-0.053506,0.048525,0.17608,-0.12998,-0.2065,-0.23201,-0.00243,-0.002436,0.30356,0.20153,-0.20653,-0.078977,0.099564,0.09957,0.023047,-0.027969,0.17611,0.048549,-0.00251,-0.15551,-0.027962,0.074038,0.048536,-0.027962,-0.15547,-0.15551,-0.027969,0.12505,0.22708,-0.027969,-0.02798,-0.027987,0.048567,0.023065,0.023054,0.15057,0.09954,0.023005,-0.028005,-0.002491,0.023005,-0.053495,-0.027969,-0.1045,0.048531,-0.02798,0.074057,0.023047,0.20156,0.074051,-0.10449,-0.181,0.074038,-0.027974,-0.002436,-0.027944,-0.10446,0.048543,0.17604,0.02301,-0.30856,-0.079033,-0.027987,0.023047,0.074013,-0.10447,-0.12996,-0.053458,0.074038,0.023029,0.023023,0.023017,-0.002467,0.023065,-0.002443,-0.10444,-0.12996,0.023059,-0.053482,-0.027969,0.023029,0.074013,-0.002497,0.12507,0.023047,0.22707,0.023059,-0.053433,-0.053451,-0.078977,-0.38508,-0.15553,-0.027974,0.20157,0.15056,0.1506,0.074093,0.15057,-0.027969,-0.002485,-0.079014,-0.18103,-0.07899,0.074075,0.12506,0.048555,-0.1045,-0.053464,0.099559,-0.15547,-0.027956,-0.05347,0.048543,-0.002472,0.12504,0.17607,0.099564,0.023047,-0.053482,-0.12998,-0.078996,0.023023,-0.10449,0.17607,0.023054,-0.15548,-0.027956,0.023029,0.074038,-0.027969,0.12504,-0.027969,-0.078959,0.048555,-0.002479,-0.12999,-0.002461,0.023041,0.048536,-0.12998,-0.002479,0.09954,-0.15551,-0.28303,-0.027956,0.1251,0.048561,0.15057,0.074057,-0.15551,-0.28303,0.12506,0.099546,0.17603,-0.28302,-0.053458,-0.002436,-0.078959,-0.053446,0.048561,0.15053,0.099521,-0.028005,0.023023,-0.002454,-0.12996,0.023065,-0.027969,0.02301,-0.2065,-0.078966,0.099546,0.074013,0.074038,0.12505,-0.027962,0.023047,0.048531,0.022986,0.099521,-0.181,-0.1045,-0.027974,-0.002467,0.074051,0.023065,0.12509,-0.1045,-0.18101,0.048543,-0.07899,-0.02798,0.12504,-0.002479,0.17608,0.1251,0.023041,-0.13001,-0.18103,-0.15548,-0.10448,0.074044,0.074062,0.099577,-0.027962,-0.18103,-0.18102,0.17606,0.17606,0.074044,-0.027956,-0.20651,-0.053464,-0.10447,-0.002461,0.09957,0.27808,-0.25753,-0.027969,-0.15547,-0.027962,0.099515,0.074026,0.12503,0.023035,0.074087,0.023078,-0.10446,-0.053464,0.023029,0.074013,-0.002516,-0.10448,0.023035,0.12504,0.074044,-0.078972,-0.002436,-0.12996,0.074062,-0.002472,-0.002479,0.17607,0.099546,-0.10446,-0.053451,-0.12998,0.074044,-0.02798,-0.18102,-0.23205,0.074038,0.15056,0.3036,0.074069,-0.10443,-0.10446,-0.181,-0.053476,-0.002491,0.074026,-0.02798,-0.18101,-0.18103,0.22708,0.2526,0.20158,0.048536,0.099546,-0.002479,-0.02798,-0.10449,-0.027969,-0.002461,-0.027969,-0.002448,-0.002448,0.15056,0.09954,0.023047,0.074057,-0.027956,0.048549,-0.027931,0.074062,-0.002448,-0.15548,-0.10447,-0.053495,-0.002497,0.073995,0.023023,0.023023,-0.053476,-0.10449,-0.078977,0.048567,0.023041,-0.027987,-0.053482,0.17603,0.048512,0.023023,0.048543,-0.10447,-0.027931,-0.002412,0.048567,-0.10452,-0.18103,-0.002479,0.15054,0.099552,-0.10447,-0.10447,-0.18098,0.12505,0.048561,-0.10449,-0.002479,-0.002491,0.023035,0.099546,-0.027956,-0.053446,0.048567,-0.027938,-0.053488,0.023005,0.02301,-0.1045,0.12504,0.17607,0.12508,-0.053458,-0.02795,-0.18099,-0.1045,-0.002479,-0.02798,0.074075,0.074062,-0.079008,-0.20652,-0.002454,-0.05347,0.074069,0.15057,0.15054,0.048512,-0.13001,-0.053482,-0.027962,-0.078972,-0.10444,-0.078959,0.023047,-0.053482,-0.027998,0.074013,0.17603,0.023035,-0.02795,-0.20647,-0.053451,0.20156,0.12505,-0.053482,-0.053476,-0.027987,-0.18099,-0.05347,-0.053476,-0.002479,-0.027974,-0.078972,0.023059,0.20156,0.22707,0.09954,-0.05347,-0.078984,0.048536,-0.02795,0.048543,-0.053446,-0.12998,-0.10449,0.023035,0.048525,0.15054,0.048536,-0.002443,-0.002454,-0.13,-0.002479,-0.002467,0.048561,-0.078966,0.023041,-0.18103,0.048549,0.17608,-0.002448,-0.002443,-0.13,-0.18101,0.023023,0.12504,0.12504,-0.027962,0.023047,-0.07899,-0.027969,-0.027969,-0.027956,0.048555,-0.053488,-0.002472,-0.10445,-0.1045,-0.28305,0.12504,0.12508,0.09957,0.12507,-0.078966,-0.078953,-0.20652,0.048512,-0.002485,-0.027969,-0.002467,0.048549,0.099559,-0.15546,-0.12998,-0.027969,0.20154,0.023041,-0.079002,-0.027956,0.099546,-0.078984,-0.027974,-0.18098,-0.10444,0.048555,-0.027998,0.12503,-0.002485,0.048531,0.12507,0.099552,-0.002461,-0.10447,-0.027974,0.099546,-0.078984,-0.002461,-0.078984,0.048518,0.074038,0.023035,-0.002443,-0.002443,-0.027938,-0.15548,-0.23204,0.048512,0.15054,0.15056,-0.027993,-0.002436,0.17611,0.12508,0.15056,-0.181,-0.078984,0.074044,-0.078972,-0.18103,-0.002472,0.20159,0.22711,-0.078935,0.12504,-0.002497,-0.079021,-0.13002,0.074057,-0.10445,-0.002454,0.023035,0.074057,0.12509,-0.25748,-0.1045,-0.028005,0.048512,0.048525,0.048561,0.15059,0.048549,-0.078953,-0.10447,-0.078972,-0.053476,-0.027998,0.20156,0.099534,-0.1555,-0.25751,0.12507,-0.053458,0.17608,-0.002436,-0.027974,0.12502,-0.002485,0.023035,0.023041,0.023035,-0.078977,-0.15548,0.048567,-0.10447,0.023035,0.15057,0.048531,0.12502,0.30358,-0.078996,-0.12998,-0.10445,-0.002418,-0.232,-0.027993,0.022986,0.20155,0.12505,-0.053458,-0.027938,-0.002454,0.074057,-0.002472,0.099521,-0.027993,-0.13,-0.078972,0.048536,0.17605,0.099552,-0.078941,-0.15548,-0.12998,-0.053458,0.048536,0.074051,0.12505,-0.078996,0.023035,0.048531,-0.078972,0.048561,0.023065,0.12506,0.099546,0.099528,-0.002467,-0.18101,-0.15553,-0.10447,0.023065,0.099564,0.12508,-0.053476,-0.30854,-0.1555,0.20158,0.17607,0.099546,0.074038,-0.10449,-0.12999,0.12506,0.09954,-0.10447,-0.002461,0.023035,-0.078966,-0.10449,0.09954,0.20156,-0.05347,-0.2575,-0.10448,0.074044,0.20158,0.074069,0.074026,-0.053495,-0.002485,0.048536,0.074081,-0.027974,-0.18104,0.09957,0.099552,-0.002448,0.048549,-0.002472,-0.027987,-0.053464,-0.078959,-0.078977,0.023029,0.12504,0.023023,-0.02798,-0.10447,0.15059,-0.078966,0.12509,0.074062,0.048555,-0.053482,0.023023,-0.02798,-0.1555,-0.13,-0.10449,-0.078977,0.023029,-0.078972,0.023047,0.15059,0.15055,0.22707,0.074013,-0.41057,-0.33405,-0.002436,0.17609,-0.027938,0.074081,0.023035,0.023035,-0.07899,-0.1045,0.099521,-0.10452,0.07402,0.048561,-0.15543,-0.18095,-0.002461,0.074013,0.17606,0.074026,-0.053464,0.20154,-0.027974,-0.23199,-0.078959,-0.078941,0.048555,0.15054,-0.002497,-0.002491,-0.002454,-0.078959,-0.078996,-0.05347,0.20162,0.12507,-0.1045,-0.13001,-0.002467,0.074057,-0.053476,-0.053476,-0.027969,-0.05347,-0.23201,-0.078977,-0.078947,0.17606,0.023029,0.048531,-0.002461,0.023035,0.023023,0.048549,-0.078959,-0.053476,-0.20652,0.22708,0.074051,-0.02798,0.12505,0.099583,-0.02798,-0.15552,0.074057,0.023072,-0.12995,-0.002491,0.022992,0.048549,-0.002454,-0.002485,0.12505,-0.05347,0.023072,0.023072,-0.053458,0.02301,-0.0535,0.12507,-0.07899,-0.1045,-0.053451,0.048567,-0.053439,-0.10447,-0.027987,-0.027998,0.074044,0.074044,-0.002448,-0.053495,-0.13002,-0.25753,0.12514,0.074111,-0.10447,-0.053513,0.22705,0.022998,-0.053495,-0.053495,0.099552,0.09957,-0.078953,-0.053446,0.048536,-0.079002,-0.25752,-0.027969,0.099534,0.023029,-0.05347,0.074044,0.074069,0.048549,0.023029,-0.078984,-0.2065,-0.002461,0.023017,0.02301,0.12508,-0.053458,-0.20648,0.074075,0.099583,0.20154,-0.053495,0.074038,0.25254,0.023029,-0.053464,-0.002443,-0.078966,-0.053446,-0.027969,0.20157,0.048561,-0.18101,-0.05347,0.048543,0.023041,-0.002491,0.099559,0.17607,0.074044,0.17604,0.023035,-0.078984,0.074051,0.12505,-0.15547,-0.18098,-0.053451,-0.02795,0.074051,0.074026,0.048518,0.048536,-0.10449,-0.027974,-0.002497,-0.18099,0.20163,0.048555,-0.15552,-0.002485,-0.05347,-0.027987,0.023035,0.023047,0.099564,0.023041,-0.027969,0.048555,0.023035,-0.15549,-0.07899,0.023023,0.023035,-0.002448,-0.027956,0.023065,-0.053446,-0.002461,-0.12998,0.0485,0.20153,0.15053,-0.10449,-0.20649,-0.078972,0.2016,0.20159,-0.28305,0.048567,0.074026,0.12503,0.048506,-0.15552,0.048543,0.17605,-0.002491,-0.18099,-0.078953,0.09957,0.048536,-0.23204,-0.2065,-0.027969,0.2271,0.17606,0.17605,0.074087,-0.12998,-0.25753,-0.002528,0.22708,0.22708,-0.078959,-0.078966,-0.12997,-0.053495,0.023029,0.023017,-0.07899,0.023054,-0.10445,-0.027974,0.074044,0.048512,-0.078984,-0.12997,-0.027944,-0.027938,0.048555,0.023029,0.09954,-0.028023,-0.28308,0.09954,-0.002443,0.17612,-0.002412,-0.002467,0.023023,-0.078972,-0.18099,0.15057,0.023029,-0.18104,-0.25754,0.074062,0.1506,0.1506,0.12505,0.099546,-0.20649,-0.20651,-0.078984,-0.1045,-0.002448,0.17606,0.12505,-0.027969,0.074044,-0.002461,-0.053506,0.12502,0.20155,0.023035,-0.2575,-0.25748,-0.002412,0.04858,0.023047,-0.02798,0.099546,0.048531,-0.053482,0.099564,0.17607,-0.181,-0.28303,-0.20651,0.15058,0.15058,0.048549,0.023035,-0.002467,0.074044,-0.10449,0.074033,0.074057,-0.002423,0.023047,-0.15548,-0.079002,-0.002472,-0.002479,0.023029,0.048531,0.09957,0.15058,-0.027938,-0.078996,-0.15553,0.15055,-0.027974,-0.002454,-0.027969,-0.078972,-0.053476,-0.002461,0.15056,0.023047,-0.13002,-0.078996,0.17606,0.15059,0.074057,-0.027944,-0.078972,-0.078984,-0.20649,0.17608,0.074026,-0.002497,-0.028005,-0.1045,-0.078996,-0.053451,0.048567,0.17609,0.27812,0.023041,-0.25754,-0.33404,-0.078959,0.048555,-0.02795,0.048549,-0.027969,0.12507,-0.12999,-0.028005,0.048518,0.074051,0.048531,-0.053476,-0.10449,0.17607,0.12508,0.12509,0.099577,0.023047,0.12505,0.099552,0.048536,0.07402,0.074051,-0.002454,-0.10447,-0.027944,-0.15546,0.048555
-0.002479,-0.078984,-0.10447,-0.10448,-0.078984,0.048518,0.048543,0.048561,0.074051,0.15056,-0.05347,-0.078972,-0.12999,-0.078977,0.048543,0.074038,-0.02798,-0.078977,-0.027956,-0.002454,0.048543,-0.002479,-0.002467,-0.027974,0.023047,0.099552,0.15056,0.074044,0.023041,-0.02795,-0.053464,-0.078972,-0.18099,-0.12998,-0.053476,0.074051,0.17607,0.074069,0.023047,-0.027956,-0.10447,-0.18099,-0.10449,-0.15548,-0.10447,-0.027969,-0.027969,0.023035,-0.002472,0.099564,0.099564,0.074057,-0.078984,-0.13,-0.18101,0.048536,-0.027962,0.15057,0.17606,0.12505,-0.05347,-0.23201,-0.25751,-0.15548,-0.12998,0.12506,0.22707,0.12507,0.17606,-0.002467,-0.18099,-0.15549,-0.12999,0.048549,0.023029,0.023023,0.048543,-0.002467,-0.002479,0.048555,0.048543,-0.027969,0.074044,-0.027962,0.048555,-0.002461,-0.027969,-0.02798,0.074057,0.12507,0.023054,-0.002467,-0.15551,-0.13,-0.181,0.023035,-0.053464,0.12507,0.20158,0.17606,-0.002479,-0.20652,-0.027969,-0.10446,-0.027969,0.048531,0.12504,0.074051,0.074062,0.048567,-0.027962,-0.053482,-0.10449,-0.2065,-0.10448,-0.053482,-0.078984,-0.053482,0.048549,0.15056,0.048543,0.023035,0.048543,0.074051,0.074057,0.074033,0.099564,0.17607,0.023047,-0.027956,-0.027969,-0.002467,-0.12998,-0.1555,-0.07899,-0.002485,-0.053476,0.074051,0.12506,0.22708,0.17607,-0.15549,-0.15549,-0.12998,-0.1555,0.023023,0.074051,0.15056,0.25259,0.22708,-0.027962,-0.053476,-0.181,-0.15549,-0.181,0.023029,0.023041,0.20158,0.27809,0.074057,-0.12999,-0.25752,-0.25751,-0.10449,0.12505,0.17606,0.023035,0.048543,-0.05347,0.023054,-0.027969,0.023054,-0.053476,-0.027974,-0.002472,0.023023,-0.002454,0.048543,0.22708,0.22708,-0.05347,-0.15551,-0.23201,-0.12998,-0.002467,0.09954,0.074038,0.023029,0.023041,-0.002461,-0.05347,0.023035,-0.053482,-0.10447,-0.078977,0.048543,-0.078977,0.023047,0.17607,0.023041,-0.002479,-0.10449,-0.053464,-0.12998,-0.078996,-0.002467,-0.002454,0.15056,0.12504,0.074057,0.023059,-0.053476,-0.078996,-0.05347,-0.078972,0.023035,0.17606,0.12506,0.074051,-0.027969,-0.027969,-0.078972,-0.18098,-0.12998,-0.053495,0.023035,0.09957,0.099552,0.074038,0.074051,-0.02795,-0.10449,-0.1045,-0.181,-0.053476,0.074044,0.074044,0.048531,0.17608,-0.078966,-0.12999,0.023035,-0.15548,-0.078966,-0.027974,0.02301,0.074038,-0.027974,0.048561,0.048549,0.048561,0.023029,-0.15549,-0.23201,-0.10449,0.074044,0.12505,-0.053482,0.074057,0.09957,0.023041,-0.078996,-0.12999,-0.10447,-0.053476,0.099534,0.074044,0.048567,0.048555,0.12505,-0.002461,-0.05347,-0.15548,-0.078972,-0.13,-0.053476,0.12507,0.099546,0.099546,0.074062,-0.002448,-0.053476,-0.13,-0.078977,-0.078972,0.15056,0.22708,0.074038,0.048543,-0.078972,-0.18099,-0.078984,-0.10447,-0.027974,0.12505,0.048536,0.023041,-0.078972,0.023047,0.023041,-0.10448,-0.12999,-0.232,-0.181,0.048512,0.07402,0.074038,0.12506,0.25259,-0.053433,-0.05347,-0.002485,0.25254,-0.20646,-0.3595,-0.027974,0.17604,0.09957,0.048573,0.12509,-0.13003,-0.23201,-0.02798,-0.027987,0.45658,0.074075,-0.28298,0.22708,0.023047,0.35459,-0.2065,-0.51254,-0.58908,0.30359,0.60964,-0.10454,0.099564,-0.23196,-0.002443,-0.20653,-0.30852,0.09954,0.15057,0.2271,-0.23198,0.023017,0.20158,0.20159,-0.002479,-0.23199,-0.25753,-0.25757,-0.07899,0.27811,-0.027962,-0.18101,-0.23203,0.30363,0.32911,0.15056,-0.15549,-0.283,-0.10448,0.023041,0.17606,0.38008,0.048536,-0.12999,-0.053464,-0.10449,-0.078984,-0.078972,-0.20648,-0.10451,0.074008,0.20153,0.15057,-0.078935,-0.002418,0.023047,0.023065,-0.30853,-0.12998,0.20159,-0.053525,-0.0535,-0.20653,0.27808,0.099564,0.2526,0.3801,0.09957,-0.078984,-0.35953,-0.25753,-0.12996,0.15056,0.074038,-0.027969,-0.053464,0.048549,0.023035,-0.053476,-0.10449,-0.20651,0.023023,-0.027969,0.15057,0.074051,0.048549,0.20157,0.22707,-0.053482,-0.23199,-0.35953,-0.181,0.048549,0.22706,0.074057,0.099552,-0.078996,0.2526,0.099577,0.1251,-0.12999,-0.43607,-0.30853,0.27812,0.35461,-0.002454,-0.053476,-0.41052,-0.078959,-0.181,0.022992,-0.30856,-0.027962,0.048573,0.15059,0.023059,0.023059,-0.002461,-0.10448,0.15054,-0.027974,0.074038,-0.12999,-0.18099,-0.002443,0.048543,0.22708,-0.002485,0.074044,-0.053506,-0.28299,-0.078984,0.4311,0.22708,-0.38503,-0.38505,0.12508,0.15057,-0.078972,-0.05347,-0.05347,0.12505,0.25258,0.2781,0.12506,-0.23203,-0.002467,-0.10448,-0.10449,-0.12998,-0.027974,0.048543,-0.027956,-0.002467,0.099546,0.074062,0.023047,0.15056,0.048549,-0.078977,-0.181,-0.027998,-0.23198,0.074069,0.048561,0.15059,0.099619,-0.078966,-0.46159,-0.28305,0.099577,0.15056,0.35272,0.19971,0.32721,0.0977,-0.15546,-0.10443,-0.078953,-0.2065,-0.002521,0.40559,-0.027944,-0.18098,-0.078972,0.20155,0.38004,0.074044,-0.28299,-0.078947,-0.07899,-0.078966,0.023041,-0.053464,0.02301,-0.079002,-0.15549,0.074044,0.22708,0.12509,0.048543,-0.15553,-0.18104,0.048543,0.099595,0.12506,0.023059,0.023047,-0.12998,-0.1045,0.074062,-0.002461,-0.053482,-0.10447,0.20156,0.12504,-0.12998,-0.053458,-0.02795,-0.002467,0.048555,0.023041,0.023035,0.15055,0.17606,0.17607,0.023059,-0.15548,-0.027944,-0.053451,-0.25748,-0.20651,-0.002479,0.099503,0.074038,0.048561,-0.05347,-0.15549,0.1506,0.22712,0.048555,-0.1045,-0.28304,0.17607,0.12504,0.25257,-0.18102,-0.51257,-0.002443,0.25262,0.2526,-0.027993,-0.12998,-0.181,0.074051,-0.053476,-0.027993,-0.002448,0.048585,-0.027931,-0.05347,-0.028005,0.17602,0.074057,-0.002461,0.048567,-0.027962,-0.12997,-0.002454,-0.078959,-0.027998,-0.002503,0.023054,-0.053476,-0.053458,-0.053451,0.20161,-0.053482,-0.079002,-0.20652,0.3036,0.35458,-0.027956,-0.15548,-0.027956,0.048567,-0.10449,-0.15549,-0.027974,0.074062,0.15057,-0.027987,0.048531,-0.078984,0.048531,0.099552,0.15058,0.048561,0.099564,-0.12996,-0.027974,-0.15551,-0.002503,0.099546,0.048525,-0.38506,0.04858,0.04858,-0.002443,0.2526,0.20155,0.12504,-0.002454,-0.078984,-0.078972,-0.027969,0.023041,-0.10448,-0.053464,0.023017,0.09954,0.15055,0.12505,-0.002479,-0.10445,-0.002443,-0.15549,-0.181,0.048555,0.17607,0.25258,0.099559,-0.078984,-0.18102,-0.078996,0.12504,0.15056,-0.20652,0.15057,0.023084,0.20159,0.048543,-0.027974,-0.28307,-0.1555,0.023041,-0.002448,0.048567,0.2016,-0.13001,-0.002472,0.074062,0.099552,0.02301,-0.027993,0.048561,0.048555,-0.027938,-0.12997,-0.232,0.074013,0.12504,-0.07899,-0.078984,-0.079002,-0.027969,0.099583,0.074062,0.074075,0.074044,-0.053495,-0.25753,0.02301,0.099546,-0.20655,-0.002448,0.074075,0.048598,0.15059,0.048531,-0.10454,-0.078996,0.048567,0.048555,-0.33404,-0.28305,-0.053476,0.22707,0.15057,0.048555,0.074051,-0.078984,-0.027956,-0.002461,-0.10447,-0.10447,-0.002467,-0.078972,0.15057,-0.078959,-0.028011,0.048518,0.048555,0.12505,0.15055,-0.027969,-0.15548,-0.12997,-0.078984,-0.05347,0.12508,-0.002461,0.048536,0.048525,0.25255,0.048549,-0.12998,0.023065,-0.02798,-0.053458,-0.25755,0.02301,0.048549,0.048555,-0.027938,0.20161,-0.027944,-0.10449,-0.1555,-0.002485,0.15054,-0.079002,0.074069,0.15055,0.048518,-0.13001,-0.053427,0.023084,0.023054,0.048536,0.074044,-0.027962,-0.079014,0.099552,-0.027998,-0.053506,-0.02795,0.023084,-0.053427,-0.10447,0.048531,0.074033,0.074038,0.12506,0.023041,-0.18101,-0.027969,0.17611,0.15059,-0.28305,-0.41059,0.023035,0.099577,0.30359,0.12507,-0.002448,0.023041,0.023035,-0.10447,-0.13,0.048512,0.15055,-0.10451,-0.027962,0.074057,0.15057,0.023054,-0.28298,-0.12999,0.048549,0.074038,0.09954,0.023035,0.048543,-0.002448,-0.078959,-0.10447,0.023029,-0.053458,-0.027969,-0.053482,-0.028018,-0.181,-0.12999,-0.05347,-0.10449,-0.15551,0.15056,0.22706,0.023023,0.048531,-0.002479,-0.053488,-0.18099,0.04858,0.099559,0.023035,-0.053451,-0.078966,-0.10449,-0.027993,0.023029,0.09954,-0.053506,-0.053506,-0.15547,0.074081,0.22712,0.17609,0.074081,-0.027987,-0.027987,0.074033,0.048525,-0.10449,-0.10449,-0.1555,-0.078972,0.20157,0.12505,0.02301,-0.002485,0.074057,-0.1555,-0.15549,0.074087,0.1251,-0.027956,0.074075,-0.078972,0.15057,-0.027987,0.023035,0.048525,0.048525,-0.10449,-0.10449,0.048536,0.12508,-0.027969,0.074038,0.22708,-0.078972,-0.181,-0.1045,0.074069,-0.002448,-0.002436,0.12509,-0.15546,-0.027993,-0.027993,-0.027993,-0.15552,0.22706,0.048543,-0.10449,-0.12996,-0.002436,-0.07899,0.25259,-0.027956,0.27809,0.15051,-0.15553,-0.053451,0.12509,-0.002454,-0.053482,-0.028005,-0.10452,0.17606,0.17605,0.15056,-0.18101,-0.15549,-0.10443,-0.078941,-0.002454,-0.027987,-0.079008,-0.002485,-0.027974,0.12503,0.07402,-0.027962,0.048567,0.12509,0.048543,-0.15549,-0.02798,-0.0535,-0.41056,0.023041,0.30361,0.048549,-0.20649,-0.078953,0.074051,0.17608,0.099559,-0.027998,-0.1045,0.074013,0.22707,0.17608,-0.027931,-0.053439,0.074057,-0.12998,-0.027998,-0.23202,-0.002491,0.023035,0.22704,0.099577,-0.002454,-0.078959,-0.20648,-0.078947,0.099577,0.099546,0.12505,-0.027998,-0.20654,0.074062,0.023084,-0.027944,-0.053464,-0.078977,-0.002472,-0.002497,0.12503,-0.027974,0.023047,0.023041,-0.027969,-0.002423,-0.25751,-0.2065,0.12509,0.074062,-0.079002,0.15054,0.15057,-0.12997,-0.15553,0.12503,0.074075,0.099583,0.099559,-0.078972,0.074057,0.074062,-0.053458,-0.15549,-0.20653,0.30356,0.023035,-0.053451,0.048549,0.048549,-0.053506,-0.079021,-0.027956,-0.02795,0.074069,0.023084,-0.002436,-0.053464,-0.028018,-0.10452,0.099546,0.048536,-0.053446,0.023041,0.22708,-0.078984,-0.027998,-0.078972,0.074075,-0.027956,-0.078984,-0.13008,0.17607,0.09957,-0.10449,-0.027969,-0.002467,0.048536,0.048512,0.12499,0.15053,-0.12999,0.023054,0.099552,-0.12997,-0.05347,0.099564,0.12507,-0.12999,-0.053482,-0.027969,-0.002448,0.12505,-0.027962,-0.053451,0.048543,0.099546,-0.10447,-0.181,-0.00243,-0.13001,-0.18105,0.074033,0.048543,0.023029,-0.15549,-0.15549,-0.02798,0.023029,0.048518,0.023029,-0.027974,-0.078984,0.023047,0.074075,-0.12997,-0.18101,0.17603,0.25257,0.15057,0.023072,-0.1555,0.023023,0.074044,-0.05347,-0.10447,-0.027956,-0.027974,-0.002479,0.17604,0.25259,-0.10449,-0.078959,-0.2575,-0.053451,0.17611,-0.15551,-0.30858,0.02301,0.099564,0.023035,0.048543,0.099552,0.09954,-0.15553,-0.15549,-0.053451,0.048518,0.15054,-0.002491,-0.15546,-0.053446,-0.10447,-0.13,0.048531,0.12506,-0.027969,-0.002485,-0.028005,-0.028018,0.048518,0.09954,0.023023,0.074038,-0.10448,0.023029,-0.10449,0.12505,0.09954,-0.0535,-0.02798,0.04858,0.074062,0.074062,-0.18103,-0.35951,-0.3085,0.20157,0.20156,0.25257,0.048536,-0.15546,-0.15548,0.048531,0.048531,-0.002461,-0.002448,0.048536,-0.053513,0.048518,0.17607,-0.02792,-0.20652,0.12505,0.099552,-0.053446,-0.053446,0.023035,0.023047,0.17604,-0.13002,-0.002497,0.074062,0.12509,-0.18098,-0.053451,-0.02795,-0.10449,0.048525,-0.002491,-0.002491,0.023041,0.074051,0.074081,-0.18101,-0.23201,0.12507,0.22709,0.22705,0.048536,-0.027969,-0.027969,0.12507,0.12509,-0.002436,-0.10447,-0.30852,0.099552,0.074013,0.17603,-0.027993,-0.10449,-0.15546,0.15061,-0.027956,-0.13001,0.12503,0.15052,-0.027962,0.099564,0.048543,-0.002467,-0.027956,-0.027944,-0.12996,-0.053451,-0.027956,0.074038,-0.078984,-0.10449,-0.12998,-0.15548,-0.18095,-0.30853,-0.30854,0.17606,0.30361,0.099577,-0.002461,0.048536,-0.15549,-0.12999,0.023035,-0.027962,-0.002461,-0.15547,0.074081,-0.002461,-0.30855,-0.30855,0.048561,0.17607,0.15055,0.1506,-0.002412,-0.053458,-0.12998,-0.07899,0.048506,0.074038,0.20155,0.074038,0.048525,-0.15549,-0.12995,0.04858,-0.002443,-0.027956,-0.10451,-0.053495,-0.002479,-0.002472,0.17606,0.048567,-0.10445,-0.078941,0.20161,-0.078972,-0.3851,-0.41057,0.27809,0.22708,-0.027998,0.048549,0.099559,0.023054,0.023054,0.074087,-0.002497,-0.30855,-0.002467,0.17604,0.20157,0.12505,-0.053433,-0.18095,-0.02795,-0.053525,0.0485,-0.053488,0.023047,-0.07899,0.15056,0.099559,-0.053451,-0.053439,-0.05347,-0.002491,-0.12999,-0.078977,-0.027987,-0.002479,-0.05347,0.074057,-0.002479,0.099577,-0.027944,0.074044,-0.15554,-0.20656,-0.053451,0.074062,0.2271,0.22708,-0.10449,-0.10447,-0.18099,0.023035,-0.13001,-0.002485,-0.053464,0.048555,-0.12998,-0.002479,0.074081,0.15059,-0.053451,-0.078996,0.023017,-0.002503,0.17604,-0.002454,-0.027956,-0.053433,-0.053458,-0.002436,-0.28305,-0.35958,0.099552,0.20159,0.3291,0.048531,-0.027969,-0.20649,0.023035,0.15055,0.09957,0.048543,-0.12999,-0.18101,-0.05347,-0.027969,0.22709,-0.002485,-0.20651,0.099583,0.048549,0.12504,-0.078972,-0.05347,-0.002461,-0.002485,0.023047,0.048525,0.023041,0.023054,-0.002454,0.048536,-0.078996,-0.002461,-0.05347,-0.027969,0.023035,-0.053495,0.074062,-0.027962,-0.05347,-0.002461,-0.07899,0.023029,0.07402,0.023023,0.023072,0.023078,-0.078984,-0.33408,-0.13001,-0.002448,0.15059,-0.027974,0.22705,0.099528,0.048518,-0.078966,-0.12995,-0.078959,-0.002461,0.048549,0.074051,0.048549,-0.053506,-0.13001,-0.12998,0.099552,0.048561,0.048536,0.12506,0.023023,-0.30855,-0.1045,0.099583,0.048567,-0.10448,-0.053458,-0.10447,0.099595,0.048555,0.35458,-0.078996,-0.25756,-0.38509,0.15057,0.12507,0.099577,-0.00243,0.023096,0.048567,0.02301,0.074013,-0.30854,-0.053476,-0.002443,-0.002448,-0.078966,0.023054,-0.078972,-0.1045,0.12503,0.074038,-0.002467,0.099577,-0.12999,-0.079002,-0.053476,0.2526,0.15062,0.099552,-0.18101,-0.28306,-0.1555,0.15057,0.2781,-0.002467,-0.027974,-0.2065,0.04858,-0.078996,-0.18102,0.074051,0.17609,0.17604,0.15055,-0.002485,-0.002467,-0.15546,-0.15547,-0.002448,0.023023,0.048525,-0.002461,0.023029,-0.079008,-0.18103,0.20159,0.15061,0.074087,-0.053446,0.17606,0.074013,-0.027987,-0.12999,-0.078972,0.023041,0.048536,-0.053476,-0.078959,-0.02795,0.15054,0.30355,-0.13001,-0.20649,-0.078959,0.048549,-0.002467,0.023041,-0.002436,-0.002467,0.15057,0.099521,-0.053495,-0.07899,0.09954,0.048555,0.023065,-0.10445,-0.12998,-0.10449,0.12504,0.048543,0.048531,-0.002467,-0.053476,-0.002479,-0.002454,0.074093,-0.002423,-0.002443,0.099559,-0.002485,-0.027993,-0.027993,-0.23204,-0.25753,-0.078953,0.099564,0.17606,0.20158,-0.002485,-0.078977,-0.027969,-0.23201,-0.002472,0.17606,-0.05347,-0.027956,0.1251,0.22708,0.15056,-0.18101,-0.28302,-0.10447,0.048531,0.15054,0.09957,-0.078977,-0.12999,0.048555,-0.002454,-0.13,-0.053476,-0.053476,0.074044,0.15057,0.099552,-0.027931,-0.02795,-0.10447,0.074038,0.048531,-0.18101,-0.053495,0.15056,0.20156,-0.002461,-0.28297,-0.20647,-0.10447,0.048525,0.074044,0.17605,-0.002497,-0.07899,-0.05347,0.048567,0.048592,0.023059,-0.078972,0.12504,-0.002461,-0.1045,-0.28304,-0.10452,0.12507,0.15057,0.099583,-0.053433,-0.027962,0.12503,-0.078984,-0.078996,-0.028005,-0.13001,0.048543,0.074081,0.074087,0.023065,-0.05347,-0.10448,-0.12999,0.02301,-0.027993,0.15056,0.074062,0.09957,-0.027969,0.074062,-0.18101,-0.002472,0.15056,0.023017,0.02301,0.074051,-0.002443,-0.078953,-0.027956,-0.12998,-0.12996,0.074062,0.17607,0.07402,-0.15556,-0.002516,0.17607,0.048585,-0.002418,-0.00243,0.048543,0.048525,0.074013,-0.053476,-0.10449,-0.12998,-0.10447,-0.078966,0.2781,0.099564,-0.002443,0.023017,-0.12998,-0.079002,-0.027974,-0.078984,-0.027962,0.17606,0.22712,0.074075,-0.12999,-0.15554,0.15054,-0.1555,0.023054,-0.027974,-0.027938,-0.027944,0.15059,0.048573,-0.053476,-0.15552,0.022986,0.20158,-0.18098,-0.10448,0.023035,0.17609,0.048567,-0.078941,-0.002461,-0.002472,-0.1045,-0.10452,0.048518,0.048531,0.048543,-0.10445,0.048592,0.023047,-0.12999,-0.002467,-0.002479,-0.13004,-0.0535,0.30357,0.32912,0.12508,-0.15546,-0.12998,0.074057,-0.053495,0.12504,0.15054,-0.027993,-0.027969,0.09957,-0.00243,0.023059,0.074081,-0.002485,-0.10449,-0.10449,-0.053482,-0.23201,-0.23201,0.15059,0.048549,-0.027956,0.17607,0.074038,-0.079002,-0.20655,-0.002491,0.074038,0.17604,-0.15546,0.12507,-0.02795,-0.053476,-0.20653,-0.002479,-0.002467,0.17604,0.30356,0.074038,-0.10443,-0.23196,0.023078,-0.02795,-0.078984,0.099521,0.099546,0.09954,-0.078984,-0.23206,0.048536,0.12508,0.048561,-0.002423,-0.027956,0.048543,-0.002472,-0.027974,-0.027974,-0.10449,-0.002485,-0.002472,-0.053464,-0.002461,-0.002467,0.023017,0.048525,-0.027998,-0.13002,0.25262,0.074075,-0.1045,-0.078966,0.074069,0.074062,-0.002467,-0.002448,0.074057,-0.1045,-0.15552,-0.078996,0.12509,0.074062,-0.18097,-0.07899,0.099515,0.17603,0.023035,0.023059,-0.002454,-0.053458,-0.10447,0.023047,-0.078966,-0.053495,0.023005,0.12506,0.023047,-0.053451,-0.1045,-0.15549,0.074038,0.048561,0.099564,-0.002454,0.048536,0.023047,-0.079002,0.074002,-0.053506,-0.12998,0.048555,-0.10449,-0.002423,-0.002454,0.023041,-0.002461,-0.078984,-0.10451,0.12503,0.099546,0.12507,-0.053464,-0.053451,0.023035,-0.027993,-0.053495,-0.078977,-0.10449,-0.10446,-0.23202,0.048561,0.15057,0.27813,0.023047,0.023029,0.099521,-0.027987,-0.002467,-0.053476,-0.12999,0.048536,-0.002436,-0.02795,-0.12998,0.074026,-0.12999,-0.18104,0.12504,0.12507,-0.002448,-0.053464,-0.15546,0.17607,0.15056,-0.1045,-0.15549,0.17604,0.02301,-0.078977,-0.12997,-0.002443,0.17609,-0.002448,0.023035,0.099546,-0.002479,0.023029,-0.079002,0.023041,-0.05347,-0.10444,0.023041,0.023035,0.023047,-0.15551,-0.15548,-0.027969,-0.053482,0.074033,-0.079008,-0.1045,0.2016,0.27812,-0.027962,-0.23202,-0.027969,0.023029,0.023041,-0.053488,-0.12998,0.023072,-0.05347,-0.053464,-0.079008,0.074033,0.099546,-0.10449,0.074044,-0.078984,0.048573,0.074062,-0.05347,-0.002461,0.099534,0.074038,-0.078984,0.023035,0.074062,-0.002479,-0.25755,-0.15549,0.048585,-0.078959,-0.078984,0.15056,0.048536,-0.078966,-0.028011,-0.053495,0.099521,0.074081,-0.053427,-0.12996,0.074051,0.048525,-0.002503,-0.053476,-0.002467,-0.23204,-0.05347,0.12508,0.17609,0.074062,0.023047,0.023047,-0.12999,-0.002485,-0.053495,0.023023,-0.002454,-0.15548,0.15057,0.074051,0.048531,-0.02798,-0.10448,-0.181,-0.053495,0.023047,-0.002461,0.023041,-0.002461,0.023072,0.023054,0.048531,0.07402,-0.15554,-0.027962,-0.027944,0.15059,0.17608,0.048555,-0.15548,-0.078996,0.023035,0.048531,0.09954,0.17606,-0.002467,-0.30854,-0.15547,0.02309,-0.027938,0.048531,0.074038,-0.002461,0.074044,-0.002491,0.22705,-0.027987,0.099552,-0.078972,0.023047,-0.12996,-0.053451,-0.053476,-0.078984,0.048531,-0.10449,0.099546,0.3036,0.099546,-0.28298,-0.23201,-0.12999,0.099534,0.048531,0.048536,-0.078972,-0.05347,0.099564,0.099577,0.074062,-0.05347,-0.002472,-0.002491,-0.002491,0.12504,0.074057,-0.053464,-0.12998,-0.15546,-0.078977,0.048536,-0.053488,0.023035,-0.10452,0.15059,0.023047,0.099521,0.30358,0.074069,-0.18099,-0.30853,0.048567,-0.002467,-0.027956,0.023035,-0.027974,-0.027987,-0.002467,-0.002467,0.048561,0.12508,-0.053488,-0.002491,-0.027993,0.12504,-0.053439,0.074081,-0.18098,-0.053476,0.023029,0.048536,0.048543,-0.10449,0.023035,-0.1555,-0.027993,-0.027962,0.04858,0.12508,0.023047,-0.027962,-0.078977,-0.053458,-0.13,-0.18103,-0.002472,-0.002436,0.048585,-0.078959,-0.027974,-0.0535,-0.002491,0.15052,-0.002485,-0.10451,-0.10452,-0.13001,0.17611,0.074106,0.074057,-0.078977,0.048518,-0.05347,0.023029,-0.053488,-0.13001,0.17607,0.20157,0.17608,0.023059,-0.027962,-0.028005,-0.028018,0.074044,0.099577,0.20158,0.17607,0.023054,0.12509,-0.002436,-0.02795,-0.15554,0.12503,0.074044,0.074051,0.099552,0.27808,-0.053451,-0.027944,-0.078977,-0.25751,-0.12998,0.09957,0.023065,0.023041,-0.002491,0.099521,-0.002454,0.023059,0.074051,0.099552,-0.10449,-0.12999,-0.12999,0.12505,-0.002467,-0.078984,-0.02795,0.074038,-0.13001,0.023047,0.17609,0.15055,0.023023,-0.20649,-0.053476,0.023047,0.074057,-0.053458,-0.078972,0.09954,-0.002472,-0.07899,-0.15553,0.074057,0.099559,0.22707,0.12508,0.074062,-0.12996,-0.15549,0.048518,-0.10452,-0.13003,0.048555,0.023072,0.12508,0.023072,-0.10447,-0.002479,0.15054,0.023029,-0.002467,-0.1045,-0.079026,-0.027969,0.074069,0.074075,0.074069,0.17607,-0.18104,-0.25755,-0.15549,0.12506,-0.002443,0.074038,0.048549,0.12509,-0.053433,0.023054,-0.10452,0.099515,0.048561,0.09954,0.074044,-0.07899,0.074051,-0.053451,-0.002436,-0.078959,-0.027987,0.17605,0.074026,-0.002497,0.023072,0.04858,-0.10449,-0.181,-0.027969,0.023059,0.12507,-0.002448,-0.002491,-0.002491,-0.079002,-0.07899,-0.053464,0.099595,0.099595,-0.10449,-0.07899,0.099528,0.099515,0.15052,-0.002467,-0.053464,0.048567,0.074057,-0.053446,-0.05347,-0.13,0.12503,0.20155,0.20154,-0.181,-0.078923,0.074062,0.023035,-0.027969,0.074038,0.074038,0.20156,0.048531,-0.20655,-0.10449,0.023084,0.20161,0.074069,0.22712,-0.002448,-0.15554,-0.28306,0.048518,0.17606,0.22708,0.074051,0.074044,-0.18099,-0.20647,0.048543,0.099528,0.048543,0.023023,-0.078984,-0.15548,-0.027969,0.023059,0.048549,0.023054,-0.12998,-0.1045,-0.027993,0.15054,0.023035,0.048543,-0.1045,-0.2065,0.09957,0.15059,0.20159,0.048531,-0.18101,-0.1045,-0.181,-0.15553,-0.002472,0.12509,0.099595,0.2781,0.15059,-0.05347,-0.30854,0.12508,0.09957,0.12505,-0.002461,-0.12999,-0.12999,-0.002467,-0.027987,0.074026,0.17603,-0.05347,-0.053446,-0.027925,0.17608,-0.13001,-0.13001,-0.027962,0.074057,0.048543,-0.002479,0.074057,-0.027969,-0.15549,0.074051,0.099552,0.09957,-0.15548,-0.053439,0.074044,-0.027998,0.074013,-0.027969,0.074069,-0.1045,-0.02798,-0.05347,-0.002454,0.15057,0.12508,-0.078977,-0.07899,-0.028018,0.099534,-0.10449,0.12507,0.074081,-0.027931,0.099559,-0.027998,-0.053513,-0.053476,-0.12998,0.074044,0.048555,-0.053488,0.023017,-0.12997,0.048555,0.048567,0.074057,0.074033,0.048525,-0.078996,-0.2065,-0.18098,0.048598,0.074062,-0.10451,-0.079033,0.25259,-0.002485,-0.0535,0.17604,0.17607,0.023059,0.099583,0.099583,0.12506,0.12505,-0.002467,-0.10449,0.023035,-0.078977,-0.00243,-0.18098,0.074062,0.048549,0.099559,0.15054,0.17604,-0.02798,-0.05347,-0.078966,-0.078972,-0.027956,0.17609,0.099583,-0.002436,0.02301,-0.078977,-0.002461,-0.053458,0.048549,0.17611,-0.12997,-0.28303,-0.20652,0.2781,0.32908,0.12507,-0.027962,-0.2065,-0.25753,-0.05347,0.074038,0.09957,0.099552,-0.002467,0.074038,-0.002461,0.023041,-0.002461,0.074038,-0.12998,-0.12996,-0.053446,0.074069,-0.053488,-0.07899,-0.1555,-0.078984,-0.002472,0.099559,-0.23202,-0.28304,-0.078972,0.099564,0.27809,0.15054,0.048536,-0.002472,-0.002491,-0.23202,0.2271,0.099588,-0.053451,-0.15549,-0.12999,0.12507,-0.15551,-0.053519,-0.002497,0.30359,0.074087,-0.002443,-0.12996,-0.027956,0.15054,-0.0535,-0.078977,-0.10448,-0.002461,0.12506,0.023029,0.15055,-0.00243,0.023059,0.074044,-0.079002,-0.027974,-0.078996,-0.02798,-0.079014,-0.13001,0.099564,0.17611,-0.027962,-0.002448,0.27809,-0.10452,0.07402,0.12509,-0.078941,-0.15546,0.048549,0.023059,0.023059,-0.053458,-0.053464,-0.053476,-0.12998,-0.002461,0.12505,0.17606,-0.02798,0.1251,-0.10447,-0.18102,-0.079021,0.099552,0.048567,0.048561,0.023035,0.023047,0.074044,-0.15551,-0.41052,-0.02795,0.023041,-0.027974,-0.002485,0.099552,0.099564,0.17606,-0.10448,-0.002454,-0.053446,-0.053464,0.074026,0.20154,0.048506,-0.053476,-0.002448,0.09957,0.12508,-0.027944,-0.12998,-0.23201,-0.002461,-0.15547,-0.02798,0.074038,0.15057,0.099552,-0.13,-0.027962,-0.002467,-0.027969,-0.15551,-0.13001,0.074013,0.02301,-0.002479,-0.18098,-0.10447,-0.12998,-0.027969,0.048506,0.0485,0.099515,0.023023,0.023035,0.074038,-0.027956,0.023047,-0.053464,0.074069,0.22707,-0.053476,-0.12999,-0.18101,-0.15551,-0.027969,-0.027956,-0.10448,-0.079002,0.074062,0.17608,-0.053488,-0.23202,-0.1555,0.048567,-0.053464,0.15057,0.17607,0.048549,0.023059,-0.027969,-0.20652,-0.053482,-0.15548,-0.10448,-0.053476,-0.078984,0.048555,0.17606,0.099577,-0.053488,-0.078984,-0.1045,0.12504,-0.002472,0.099559,-0.002436,-0.12999,-0.10449,-0.078959,0.12508,-0.027969,0.074033,-0.053513,-0.079008,-0.002479,-0.027969,0.048536,0.17607,-0.002467,-0.002467,0.12507,-0.002454,0.023029,-0.23201,-0.1555,0.048543,-0.002454,0.25261,0.023047,-0.15551,-0.25757,0.12509,-0.027956,-0.002472,0.12506,0.023041,-0.18096,-0.053439,-0.15549,0.023035,-0.028005,-0.13001,-0.028005,-0.053476,0.12507,0.023072,-0.053464,-0.181,-0.027956,0.12505,-0.053476,-0.027962,0.023041,-0.078977,0.099528,0.074044,0.074051,0.099601,0.2781,-0.1045,-0.18105,-0.002472,-0.053464,-0.027956,-0.002448,0.12508,-0.027944,-0.10448,-0.181,-0.002485,-0.002467,0.20155,0.023029,-0.002479,-0.181,-0.027969,0.023054,-0.002461,0.074069,0.074057,0.048543,-0.10447,-0.053476,-0.002479,-0.18102,-0.20653,0.30358,0.17609,-0.027944,-0.181,0.023047,0.09954,0.023029,0.023059,-0.078977,-0.027962,0.023035,-0.10451,0.30358,0.15056,0.023047,-0.078959,-0.078977,-0.18098,-0.002467,-0.053488,0.023029,0.09957,0.074044,0.023035,-0.027993,-0.027993,0.048555,-0.053458,-0.12996,-0.15546,-0.027962,0.17608,0.099534,-0.0535,-0.027993,0.074062,0.023035,-0.15553,-0.13,0.04858,0.074075,0.023041,-0.05347,-0.027993,-0.027956,-0.027962,-0.027998,-0.23204,0.074044,0.09957,0.099564,-0.002461,-0.2065,0.099546,0.099559,-0.002467,-0.02798,-0.027974,-0.1045,-0.002467,-0.05347,0.09957,-0.00243,-0.002454,0.048549,-0.002443,0.023035,-0.002479,0.048512,0.023059,0.023054,-0.25751,-0.33404,-0.027969,0.09954,0.17606,-0.002485,0.023035,0.15053,0.023035,0.15056,0.099577,0.15057,0.099546,-0.12999,-0.15548,-0.053464,-0.12998,0.099577,-0.027956,-0.12997,0.074062,0.074069,0.22707,0.074013,0.023017,-0.1045,-0.30856,-0.002479,0.38012,0.12509,0.20163,0.074087,-0.002461,-0.13,-0.20651,-0.078996,-0.10449,-0.027956,-0.078966,-0.002461,0.048543,0.023017,0.02301,0.023017,-0.002485,-0.027974,-0.0535,-0.002467,0.023041,-0.002454,-0.02795,0.023041,0.074051,0.023029,-0.15548,-0.12998,-0.078977,-0.10449,0.023005,-0.078959,-0.053446,-0.078966,0.12504,0.048525,-0.20654,-0.027998,0.17603,0.12505,0.023035,-0.07899,-0.23202,0.15058,0.15054,-0.028005,-0.053495,-0.07899,-0.07899,0.099521,0.048555,-0.053464,-0.078947,-0.18097,0.074038,-0.002479,-0.027987,0.12504,0.27809,-0.002467,-0.10449,-0.078977,-0.002418,-0.053458,-0.002479,0.023041,0.048536,-0.02798,0.023035,-0.05347,0.023047,0.17607,0.099577,-0.078953,0.048549,0.048518,-0.18104,-0.05347,-0.053458,0.023059,0.17607,0.099559,-0.15549,-0.20652,-0.05347,0.12508,0.099546,0.17606,-0.078977,-0.027969,-0.053476,-0.053451,-0.12998,-0.12998,0.048543,0.048555,0.15054,0.048518,0.023017,0.12505,-0.05347,-0.027944,-0.027962,0.12507,0.074062,-0.10449,-0.12999,-0.13002,0.074026,0.074044,0.099564,0.17608,0.02301,-0.053482,-0.18101,-0.1555,0.09957,0.17607,0.12508,-0.002461,-0.10445,-0.10446,0.12506,0.099521,0.15051,-0.1555,-0.053458,0.023029,-0.002461,-0.002461,0.048543,0.074075,-0.078947,-0.027969,0.099559,-0.12999,-0.23201,-0.23204,0.074057,0.048561,0.023047,0.023047,0.048561,-0.12998,-0.15549,-0.15549,0.023041,-0.078972,-0.002467,-0.05347,0.074026,0.023041,0.27811,-0.053476,-0.13002,-0.078996,0.099534,0.09954,0.074038,-0.002467,-0.15552,-0.10449,0.20159,0.25259,0.048531,-0.10453,-0.13002,-0.10452,-0.053476,-0.05347,0.048561,0.048549,-0.078953,-0.078959,0.023005,-0.028018,-0.10452,0.22707,-0.027944,-0.002423,-0.15546,0.048543,0.074051,0.048531,0.023023,-0.053488,-0.15548,-0.002472,0.15056,0.023029,-0.10449,-0.002461,0.099588,0.048549,-0.07899,-0.10451,0.12506,0.12505,0.099552,0.12506,0.099546,-0.002461,-0.15545,-0.027938,0.20158,0.074062,0.09954,-0.20653,-0.028011,0.12506,0.099559,-0.002448,0.074062,0.048549,-0.02798,-0.053464,-0.002461,0.12503,0.17604,-0.18099,-0.35951,-0.002454,0.074062,0.22706,0.22705,-0.053488,-0.002472,-0.053458,-0.10447,0.15056,-0.002467,-0.15549,-0.25752,0.12505,0.099528,0.15056,-0.002467,0.048518,0.20155,0.0485,-0.1555,-0.078947,0.048592,-0.027956,0.12504,-0.002454,0.12503,0.099521,-0.002497,-0.002454,0.023072,0.20159,-0.078953,0.099577,-0.002454,-0.002454,-0.027969,-0.002485,0.048536,0.048543,-0.002461,-0.053464,0.023035,0.074038,-0.002485,-0.053495,-0.079021,0.048525,0.17607,0.20158,-0.002454,-0.33402,-0.027944,-0.12998,0.12504,0.20156,0.09954,0.12504,-0.15547,-0.10445,0.074062,0.074051,0.17607,-0.078984,-0.027993,-0.053482,-0.053495,-0.0535,0.15059,0.32912,0.074075,-0.078953,0.099559
-0.002485,-0.002472,0.048536,0.074062,0.023041,0.09954,-0.002491,0.023017,0.02301,0.048536,-0.078996,0.023035,0.074069,0.04858,-0.002436,-0.027962,-0.12999,-0.078984,-0.027969,-0.002479,0.023035,-0.002461,-0.002467,0.023041,0.023035,-0.002479,-0.1045,-0.078996,-0.027974,-0.05347,0.074062,0.09957,-0.002454,0.023054,0.048555,0.023017,-0.079008,0.02301,-0.027987,-0.053482,-0.053476,0.023041,0.023047,0.023054,-0.053446,0.048549,-0.078984,-0.053482,-0.027974,-0.053495,0.048525,-0.027969,0.023054,0.023054,-0.002436,0.074051,-0.027969,-0.078984,-0.078984,-0.053476,0.023041,-0.027974,-0.078977,-0.05347,0.074051,0.023029,0.023029,-0.002461,-0.002467,-0.002454,0.023054,0.023059,-0.002443,-0.053439,-0.027938,0.023054,-0.15551,-0.053476,-0.027969,0.099552,0.023047,0.048555,0.074069,0.048567,0.048543,-0.002467,-0.053488,0.023035,-0.02798,0.048536,0.099546,0.074051,-0.053464,0.048555,0.074038,0.023029,-0.002485,0.074038,-0.1045,0.074038,0.099546,0.074051,0.048543,-0.027969,-0.05347,-0.078996,-0.027998,-0.027974,-0.02798,-0.002472,0.023035,0.023047,0.074069,0.023054,-0.10447,-0.02798,-0.053488,-0.027962,-0.053488,-0.027987,-0.05347,0.099564,-0.053464,-0.20647,-0.02795,-0.02798,0.099552,-0.283,-0.23201,-0.02798,0.25255,0.30354,-0.3085,-0.10445,0.048573,0.023041,0.023029,-0.18098,0.074069,0.20158,-0.027956,-0.23198,-0.078947,0.048573,0.099552,0.074044,-0.07899,-0.10445,-0.002461,0.048543,0.22708,0.17606,0.023059,0.099595,-0.12998,0.023017,-0.10451,0.17602,-0.23203,0.074044,-0.12998,0.20161,0.25264,0.1761,0.074087,0.048567,0.15054,-0.25755,-0.028042,-0.46159,-0.23201,-0.10447,0.1506,0.074093,0.023059,0.048518,0.15052,-0.002467,0.074062,0.12502,-0.25752,-0.15549,-0.1045,0.22711,0.20158,-0.027962,-0.002467,-0.15548,-0.053482,-0.027956,0.048525,0.15055,0.12509,-0.12996,-0.20649,-0.23202,0.023054,0.023047,0.022998,0.17603,0.15054,-0.027962,-0.02795,0.023065,0.048549,-0.079008,-0.079002,0.12504,0.15055,0.17605,-0.15546,-0.053446,-0.12998,-0.078935,0.099577,-0.027974,-0.028011,0.048506,0.15056,-0.027987,0.023035,0.023059,0.023072,0.099552,-0.02798,-0.10451,-0.079014,0.048555,0.15055,0.099552,0.074038,-0.23197,-0.053433,0.023065,-0.027938,0.023035,-0.078972,0.023035,0.12505,0.15055,-0.027944,-0.078947,-0.053409,-0.053446,0.099546,-0.027987,-0.18098,-0.078959,0.048555,-0.053458,-0.027974,-0.027962,0.074075,0.074087,0.048567,0.12504,-0.028005,0.22705,0.12505,-0.053482,-0.13001,-0.002472,0.048549,-0.002454,-0.05347,0.12505,0.02301,-0.20655,-0.13004,-0.10448,0.048585,0.074087,0.074087,0.15058,-0.078966,-0.10449,-0.053488,0.07402,-0.053476,-0.053464,-0.10447,-0.053482,0.023041,0.25257,-0.002467,0.17605,-0.027974,-0.053488,0.099546,0.12503,0.048555,0.17605,-0.078959,0.023072,-0.18097,0.074044,-0.02798,-0.078977,0.023017,0.048518,-0.053482,0.20155,-0.002467,-0.12998,-0.053476,0.023017,-0.027962,0.15057,0.099528,-0.10449,-0.10447,-0.053427,0.023072,-0.002423,-0.002516,0.073989,-0.10449,0.023041,0.12504,-0.027969,-0.078953,-0.002443,-0.10446,0.099559,0.074057,0.074002,-0.13002,-0.078972,-0.002454,0.074051,0.09957,-0.002461,-0.20648,-0.10445,-0.181,-0.002472,-0.002472,-0.079002,0.17603,0.15054,0.099534,0.023054,0.023059,0.17609,0.17609,-0.181,-0.18103,-0.002485,0.048518,0.048549,0.17607,0.074062,0.074087,-0.18098,-0.18101,-0.18103,0.12504,0.22705,0.17603,0.048543,0.023054,-0.027944,-0.12994,-0.078959,-0.18098,-0.053495,0.12503,0.15054,0.15057,-0.10446,-0.078966,-0.10449,-0.002467,0.048543,-0.027962,0.048536,-0.078966,0.048561,0.12503,0.20156,-0.10451,-0.20652,0.074062,0.074106,-0.002443,-0.027987,-0.13,0.074013,-0.002503,0.09954,-0.002443,0.17607,0.023035,-0.18098,-0.20647,0.023047,-0.07899,-0.079021,-0.002497,0.20156,0.1506,0.074075,-0.002448,0.023047,-0.053482,0.20153,-0.02798,-0.1045,-0.027962,-0.078972,-0.078977,0.27809,0.074087,-0.053446,-0.053495,0.048531,-0.027969,0.099546,-0.20649,-0.13,-0.002479,0.074051,-0.027962,-0.02795,0.074057,0.048512,-0.10448,-0.02795,-0.1045,-0.078984,0.074044,0.074033,0.074062,0.023078,-0.027931,0.048536,-0.02798,-0.027993,-0.002479,0.099546,-0.027956,-0.078984,0.074087,0.074087,0.12505,0.27806,0.25256,-0.15551,-0.20653,0.023035,-0.027938,0.04858,-0.12995,-0.13001,0.22705,0.25254,0.048561,-0.002448,-0.10449,-0.027974,0.048531,-0.05347,0.048549,0.04858,0.15058,0.074062,-0.078959,-0.13001,-0.053495,0.048525,0.074062,-0.002448,0.048549,0.048536,-0.15548,-0.07899,-0.05347,0.074062,0.074051,0.099546,0.023035,-0.027962,-0.002467,-0.12999,0.12509,-0.002448,-0.053482,-0.027962,-0.078977,0.023041,0.12505,-0.002467,0.048561,-0.027938,0.099559,0.074033,0.074002,-0.15553,-0.053513,0.048531,0.074051,-0.05347,-0.053464,0.074051,0.074044,-0.00251,-0.20652,-0.053506,-0.027993,0.22705,-0.002467,0.023035,0.023047,0.12506,-0.002461,0.074062,0.099552,0.2271,0.15056,-0.23202,-0.38506,0.04858,0.12509,0.074087,-0.002454,-0.027969,0.048531,-0.23203,-0.23202,0.07402,-0.002479,-0.002454,0.023065,0.099583,0.099564,0.25257,-0.027993,0.023035,-0.078972,-0.15548,-0.002454,-0.053458,-0.078977,0.048555,0.023005,0.20153,0.12504,0.023023,-0.053495,0.17604,0.023059,-0.027938,0.048573,-0.02795,0.074081,-0.078996,-0.41058,-0.15553,0.17604,0.4056,0.074062,-0.027969,-0.12997,-0.027944,-0.002467,-0.053458,0.048525,0.023041,-0.05347,0.048531,0.048555,0.074044,-0.002461,0.023065,0.023041,-0.002503,-0.053506,0.074044,0.023035,0.099521,0.12505,-0.002448,-0.078966,-0.078959,-0.1045,-0.078977,0.074069,-0.053476,-0.35956,-0.15552,0.22708,0.023054,-0.053451,0.1506,0.17606,-0.15551,-0.23203,0.099552,0.09954,-0.053506,-0.05347,0.074057,0.074075,0.023084,0.023054,0.023029,-0.079014,-0.053525,-0.002503,0.074057,-0.027956,-0.002436,-0.00243,-0.078959,-0.10448,-0.079002,-0.053506,-0.079002,0.17607,0.15057,0.15057,-0.10448,-0.10447,-0.078972,0.15059,0.099546,-0.13001,-0.1045,-0.10452,-0.079002,0.099521,0.40562,0.12508,-0.28298,-0.25748,-0.10447,-0.078972,-0.1045,-0.028011,0.099515,0.17607,0.074062,-0.00243,-0.027962,0.048531,0.048531,-0.002491,-0.002485,0.074062,-0.10447,-0.283,0.048567,0.023059,0.074051,0.023023,-0.079002,-0.10447,-0.181,-0.027962,0.099528,-0.002472,0.15059,-0.078935,-0.1555,-0.20653,0.20157,0.12507,-0.002461,-0.0535,0.074044,0.048543,-0.053458,0.048561,-0.05347,-0.002472,-0.078984,0.074033,-0.10446,-0.13,-0.027956,-0.002491,-0.002467,0.048567,0.22708,-0.027956,0.12505,-0.002479,-0.028005,-0.15552,0.15058,0.15057,0.023047,-0.12996,-0.12999,0.023029,-0.18102,0.27811,-0.078972,-0.027969,-0.0535,0.17604,-0.002443,-0.002448,-0.10447,0.023023,0.20159,-0.002443,-0.10448,-0.053482,0.12506,-0.027969,0.023023,-0.10447,-0.10446,0.074069,0.023035,0.023023,0.048518,0.02301,-0.15552,-0.23202,0.15058,0.12513,-0.053451,0.023029,-0.027993,0.023029,-0.002472,0.15054,-0.002467,-0.2065,-0.12997,0.074075,0.074057,-0.053525,-0.30856,-0.15549,0.099583,0.023047,0.12507,0.099552,0.3036,-0.027956,-0.078984,-0.027993,-0.10449,-0.002454,0.048549,0.099552,0.15056,0.048555,-0.12999,0.048543,0.074057,-0.078996,-0.15551,-0.078972,0.048525,-0.002461,0.074057,-0.18097,-0.078935,-0.12996,-0.15549,-0.13002,0.27809,0.02301,-0.1045,-0.23202,0.04861,-0.002423,0.099577,-0.12996,-0.053464,0.023035,-0.027993,-0.078972,0.048531,-0.18097,-0.02795,0.074075,0.15058,-0.053458,-0.18097,-0.078953,-0.078959,-0.053464,0.074038,0.099552,0.09957,0.048567,0.074087,0.048549,-0.15549,0.15056,0.099559,0.099546,0.17604,-0.027998,0.099559,0.12508,-0.027969,-0.18101,-0.15551,0.12507,-0.12998,-0.15547,0.048531,-0.078984,-0.05347,0.023035,0.12505,0.20158,0.048567,-0.10448,0.023023,-0.12999,-0.12999,-0.02798,0.023017,0.023041,0.048555,-0.078923,-0.18098,-0.15549,-0.02798,-0.12999,-0.15551,0.22708,0.22706,-0.078996,-0.027987,-0.15548,-0.181,-0.23202,0.074044,0.12509,0.09954,-0.02798,-0.15552,-0.1555,-0.027962,-0.078984,-0.12999,-0.027998,0.02301,0.07402,0.074038,-0.027969,-0.15548,0.048543,-0.027956,-0.053464,-0.053488,0.048525,-0.027987,0.023029,-0.18102,-0.30854,-0.02798,0.048536,-0.02795,-0.002443,0.17609,0.074033,-0.18099,-0.25753,-0.23202,-0.10448,0.15059,0.27812,-0.002443,-0.027974,-0.078959,0.048561,-0.002467,-0.1555,0.20153,0.17606,-0.10451,-0.25751,-0.20651,0.12508,0.09957,0.15054,0.023023,-0.10451,-0.10452,0.17606,0.12504,-0.10452,0.048555,-0.053439,-0.05347,0.048531,0.12507,0.048555,-0.078966,0.023041,0.074026,0.023035,-0.10446,-0.12997,-0.10446,-0.053488,0.15056,-0.027969,-0.13,-0.002454,0.099546,-0.02798,0.074038,-0.053451,-0.10446,0.074038,-0.002479,-0.027987,0.048525,-0.1555,-0.10449,0.048543,0.12508,0.1251,0.048573,-0.15551,-0.078977,0.074044,0.17606,0.074051,-0.078984,-0.15548,-0.10448,-0.002454,-0.1555,0.15054,0.27807,0.099528,-0.07899,0.022998,0.023017,-0.02798,0.048561,0.20157,0.023023,-0.079008,-0.10449,-0.10449,-0.027987,0.048518,0.074026,0.023029,0.074051,0.099546,-0.053482,-0.027998,-0.10453,-0.027998,-0.053495,0.099564,-0.002467,0.023059,-0.027956,-0.078953,-0.027956,-0.027993,-0.028005,0.022998,-0.10449,-0.1045,-0.13001,0.12502,0.12505,0.048543,-0.10448,0.09954,0.074038,-0.053525,-0.053525,-0.25753,-0.078959,0.074038,-0.02792,-0.027956,-0.02798,0.09954,0.20157,0.074038,-0.079021,-0.30854,-0.078935,0.099577,-0.12997,-0.027962,0.20156,0.12502,0.048543,0.048555,-0.002443,-0.10449,-0.002479,0.099552,-0.10444,-0.10444,-0.027969,-0.07899,-0.028005,-0.002491,0.099534,0.099521,0.074051,0.15057,-0.30847,-0.18097,0.15059,0.17607,0.15057,-0.078972,-0.078953,-0.05347,-0.181,-0.18103,-0.027931,0.04858,-0.002472,0.099534,0.15055,0.022998,0.022998,0.074002,0.048555,-0.027969,-0.053476,0.023059,-0.10448,-0.002461,0.074008,0.12504,0.17604,-0.027944,-0.10449,-0.002497,-0.13,0.15057,0.074075,0.20155,0.074038,-0.02798,0.023017,-0.053488,-0.20649,0.023065,-0.10445,-0.181,-0.053464,0.27808,0.048531,-0.002485,-0.05347,-0.002479,0.048567,0.023047,0.17607,0.074062,0.099552,-0.078984,-0.20649,0.023041,-0.027974,-0.10449,-0.027962,0.099546,0.099559,0.099583,0.20159,-0.027974,-0.12999,-0.079002,-0.13001,-0.10449,0.074051,0.15058,-0.053433,-0.05347,0.12508,-0.13002,-0.28305,-0.38506,0.17609,0.15058,0.25259,0.12507,-0.078935,-0.027956,-0.053464,0.048555,-0.002491,-0.079008,-0.1045,0.023041,-0.02795,-0.053464,0.048549,-0.002461,0.048543,-0.053525,-0.079026,0.074038,-0.078941,0.048531,0.048543,-0.10449,-0.10449,-0.05347,0.15055,0.074026,-0.002467,-0.15548,-0.12997,-0.10446,0.099552,0.12504,-0.002467,-0.10449,0.048531,0.17604,0.25259,0.099564,-0.053458,-0.053446,-0.002461,-0.02795,-0.002461,-0.25749,-0.12999,0.023041,0.048531,0.15054,-0.002472,-0.002467,0.074075,-0.12998,-0.10448,-0.078984,0.023017,0.20153,-0.02798,-0.027993,0.099564,0.12507,-0.078941,-0.053446,-0.18097,-0.10447,-0.027969,0.074026,-0.053476,-0.027974,-0.027969,-0.15548,-0.078977,-0.18098,-0.13,0.048549,0.099552,0.15056,-0.079002,-0.13001,-0.053506,0.074062,0.15059,0.048561,0.099564,-0.078972,0.048536,-0.078996,-0.10447,0.023029,0.074033,-0.053476,-0.18098,-0.027974,0.099577,0.023054,0.15055,-0.002461,0.099521,-0.13002,-0.28305,-0.078996,-0.002448,0.074069,0.2271,0.048536,-0.10452,-0.053476,-0.053495,-0.13002,0.074033,0.074062,0.22707,0.12505,0.048549,-0.15548,-0.2065,-0.1045,-0.13,-0.18101,-0.20653,0.074026,0.074051,-0.002454,-0.053427,0.2016,-0.10449,-0.053464,0.048561,0.12504,0.023023,0.048518,0.15057,0.074044,-0.002448,0.023072,-0.05347,0.074038,-0.002485,0.15056,-0.079014,-0.33406,-0.15549,0.20161,0.2016,-0.10445,-0.002454,-0.027987,0.02301,-0.1045,-0.12999,0.099528,-0.33404,-0.12999,0.04858,0.099577,-0.002461,-0.15548,-0.10449,0.074038,0.12507,0.22707,-0.078959,-0.078959,-0.027956,0.12505,0.12506,0.048531,-0.078996,-0.002479,0.12501,-0.078996,-0.078977,0.048567,-0.078996,0.074051,0.25257,-0.053476,-0.20649,-0.0535,-0.027993,-0.12999,-0.10448,-0.002461,0.22709,0.074044,-0.10449,-0.053495,0.099559,0.048561,-0.002479,-0.053482,-0.078977,-0.002472,-0.002467,-0.002418,0.023047,-0.002491,-0.002485,0.048518,0.15054,0.20158,0.023059,-0.053476,0.023041,-0.027956,-0.053458,-0.002472,-0.078984,-0.15548,-0.053476,-0.028011,0.099546,0.074062,0.12508,0.048561,0.099559,0.12505,0.023023,-0.028018,-0.18103,0.023047,0.12509,0.023072,-0.078935,-0.078966,0.12504,-0.027987,-0.20652,-0.053519,0.048525,0.2271,-0.10446,-0.35952,-0.078941,0.074087,0.023035,0.048512,0.17604,0.099521,-0.053476,-0.28304,0.023059,-0.002443,0.023072,-0.002467,-0.078996,0.023035,-0.078984,0.048555,0.023041,-0.10448,-0.15552,0.048543,0.074062,0.048561,0.12507,-0.078959,-0.002472,0.048536,0.023029,-0.12998,-0.18101,0.023041,0.023047,0.20159,0.15056,0.09951,-0.027993,0.12505,0.074051,0.074057,-0.002436,0.09957,0.17607,-0.15548,-0.12999,0.023047,0.048531,-0.02798,-0.078972,0.074044,-0.027993,-0.07899,-0.002485,0.074075,0.074051,-0.15549,-0.002479,0.023023,0.3291,0.12506,-0.002436,0.023059,-0.20648,-0.15549,-0.002485,0.099559,0.023047,0.12505,0.048525,0.099564,-0.10445,-0.053458,-0.002443,0.048573,-0.02795,-0.10449,-0.15548,0.023023,0.048536,-0.10447,0.023054,0.074057,-0.02795,-0.027969,0.099546,0.074026,0.023041,0.023023,0.048543,-0.027987,-0.053476,0.074087,-0.10444,-0.23197,-0.15549,-0.027962,0.099528,0.22705,-0.027956,-0.053476,-0.12999,-0.078984,0.074044,-0.1045,-0.10452,-0.027993,0.17606,0.048561,-0.078977,-0.15548,-0.002454,0.15057,-0.053476,-0.053482,0.074013,-0.18101,-0.10449,-0.078984,-0.078977,-0.10449,0.15054,0.023005,-0.20652,0.12506,0.099564,-0.027962,-0.15549,0.023023,0.074026,0.15057,0.12508,-0.027944,-0.15545,-0.078923,0.17607,0.048506,-0.20652,0.023047,0.30358,0.17605,0.15057,-0.12998,0.023023,-0.18101,-0.07899,-0.07899,0.12505,0.099546,0.023035,0.12506,0.12504,-0.027956,0.048536,-0.027944,0.023047,0.074038,0.12506,0.074051,-0.053476,0.12507,0.048555,0.04858,-0.232,-0.078947,0.15059,0.023041,0.099552,0.27808,0.023047,-0.02795,-0.18097,-0.12997,-0.00243,0.023041,-0.15551,-0.20654,-0.002461,-0.002467,0.048549,0.20156,-0.078966,-0.10447,-0.002448,-0.002491,0.048506,0.023023,0.048536,-0.027974,-0.12999,-0.002454,-0.002443,0.048567,-0.15551,-0.027962,0.099583,0.17609,-0.027974,0.023023,-0.027969,0.023029,-0.002472,0.048561,-0.078953,-0.078966,-0.027962,0.023017,0.022992,0.023017,0.048555,-0.027993,-0.20652,-0.10446,-0.053446,0.048549,0.074051,-0.13002,-0.15552,-0.079002,-0.12998,0.15055,0.023023,0.099528,-0.027969,0.023059,-0.10447,-0.1555,-0.079002,0.074051,0.17604,-0.027969,-0.053476,0.048536,0.074057,0.048549,0.099546,-0.002497,0.074013,0.099497,-0.079014,-0.078996,-0.10447,-0.078959,-0.002454,0.12508,-0.078996,-0.13,0.25255,0.17607,-0.053446,-0.2065,-0.13002,-0.027969,0.099601,0.023084,0.15059,0.099583,0.20158,-0.13001,-0.15552,0.048543,0.023041,0.023041,0.17606,-0.027956,-0.12999,-0.002467,-0.027987,-0.02798,0.023041,0.15056,0.17607,0.074062,-0.12998,-0.12997,0.074038,-0.027993,-0.002491,-0.027969,-0.027962,0.099577,0.25259,-0.053458,0.09954,0.07402,-0.079014,-0.12999,-0.13,-0.10447,0.023065,0.074075,-0.027962,0.15061,0.023078,-0.1555,-0.13001,0.17606,0.12505,-0.078966,0.099564,0.023072,-0.053458,-0.18097,0.15059,-0.002443,0.048573,-0.053476,-0.181,-0.053451,0.12506,0.17604,0.048567,-0.20646,-0.18097,0.048555,0.12504,-0.13001,0.12502,-0.053513,-0.181,-0.12999,0.074057,0.048543,-0.002454,-0.027944,-0.10449,-0.02798,-0.053506,-0.20652,-0.20653,-0.07899,-0.078996,-0.027987,0.15056,0.023041,-0.078977,-0.053495,-0.002479,-0.053476,-0.053488,0.099552,0.099515,-0.027962,-0.078947,0.048561,0.15054,-0.053476,-0.078966,0.074051,0.02301,-0.15549,-0.1045,-0.10447,0.15057,0.099601,0.023072,-0.13,0.048518,0.074038,0.048531,0.074044,0.20158,-0.18097,-0.15548,-0.13,0.074026,0.048573,-0.027962,-0.13003,-0.079026,-0.027962,-0.053427,-0.078941,-0.027944,0.07402,0.099546,-0.053482,-0.002467,-0.1555,-0.07899,0.023047,-0.027969,0.22709,0.27811,-0.002461,-0.10451,-0.10451,-0.053495,0.023023,-0.15549,-0.053464,0.04858,0.099583,0.1506,0.023059,-0.002472,-0.053488,-0.002485,-0.053482,0.09954,-0.05347,-0.10447,0.12506,-0.002467,-0.027969,-0.15551,0.048543,0.15057,0.15054,-0.1045,-0.20652,0.048555,0.023065,0.074069,0.074075,0.074051,-0.053513,-0.002491,0.048543,0.023035,-0.07899,-0.25751,0.048561,0.099588,-0.053439,-0.078972,0.023029,0.074057,0.074033,-0.002454,-0.002448,-0.027931,-0.002423,-0.027962,-0.23202,0.074057,-0.002443,-0.002448,0.09957,0.048561,-0.027962,-0.002461,-0.002436,-0.027925,0.048555,0.023005,0.048518,0.12505,0.048561,0.074051,0.15059,0.17605,-0.15548,0.023041,-0.002485,0.023035,-0.1555,-0.02798,-0.078966,-0.078953,0.17609,0.15056,-0.027969,0.023047,0.023054,0.099534,-0.002497,-0.028005,-0.1045,-0.078972,-0.053488,-0.1045,0.048561,0.048549,0.074038,0.12505,-0.002467,-0.027974,-0.12998,-0.12998,-0.053458,-0.23202,0.22708,0.023059,-0.002479,-0.25754,-0.027969,-0.002485,0.023017,0.048531,0.023035,-0.002479,0.023035,0.15055,0.099521,-0.053513,-0.15548,0.074026,0.023035,0.09954,0.15055,0.099546,-0.027956,-0.027969,0.048549,0.12505,0.023035,0.15054,0.074038,-0.23202,-0.25752,0.15056,0.15059,-0.078984,-0.18098,0.074062,0.048536,-0.078972,-0.15549,0.099559,0.12505,0.048531,-0.07899,-0.053476,-0.23202,-0.10448,-0.053476,0.099552,0.074051,-0.002454,0.048549,-0.10448,-0.053482,0.048536,-0.002467,0.023035,-0.002472,0.023041,-0.053458,0.074044,-0.05347,-0.027969,0.074069,0.15059,-0.053458,0.099521,-0.13001,-0.4106,-0.05347,0.20159,0.22711,0.048549,0.17607,-0.002443,-0.027956,-0.12999,-0.1555,0.048531,0.048512,0.17604,0.023041,0.048573,-0.053433,0.048561,-0.05347,0.023023,0.09954,0.074002,-0.002467,0.074057,-0.10447,-0.053464,-0.02795,-0.027969,-0.181,-0.13,0.099534,0.12505,0.12507,-0.027974,-0.10447,0.074044,0.074038,-0.13001,-0.02798,0.15057,-0.078966,-0.078996,0.09954,0.048549,0.074062,-0.053451,-0.027962,-0.027962,0.023023,0.048512,-0.002497,-0.027993,0.12505,0.074075,-0.10443,-0.10445,0.074062,0.023059,0.048512,-0.10449,0.074026,0.099521,0.023023,0.023059,0.048549,-0.078959,-0.078959,0.048555,0.074044,-0.2065,-0.053476,0.22706,0.023029,-0.002472,-0.15548,-0.181,-0.027938,0.099583,-0.078984,-0.13,0.099552,0.023029,0.12503,0.099552,-0.053495,-0.10448,-0.053451,0.023059,-0.078972,0.023029,-0.027987,-0.027998,-0.23202,0.1506,0.15057,0.12509,0.074069,-0.078935,0.074033,0.023017,-0.0535,-0.0535,0.09954,-0.027969,-0.02795,-0.053427,-0.053446,-0.053464,-0.027974,0.17603,0.048518,-0.027993,-0.002443,-0.053451,-0.1555,-0.05347,0.15059,0.15059,0.12504,0.15056,0.074051,-0.002467,-0.23201,-0.05347,0.048543,-0.027969,0.12507,-0.078977,-0.078977,0.023005,0.048518,-0.1555,0.099577,0.023072,0.048561,0.099583,-0.053458,-0.10447,-0.13,0.048536,-0.002485,-0.053464,-0.02795,-0.12999,-0.13,-0.05347,-0.053458,-0.13,0.048531,-0.027993,-0.1045,-0.13001,-0.027998,-0.002443,0.048585,-0.10449,-0.2065,-0.078941,-0.002443,0.15056,0.27806,-0.079008,-0.10451,-0.20652,-0.15551,-0.027969,0.023054,0.048567,0.15056,-0.002472,-0.10449,0.09954,0.099528,-0.027987,-0.053464,-0.12999,-0.12998,-0.15549,0.12505,0.15054,-0.078966,-0.027956,0.048555,-0.23204,-0.053451,0.048592,0.099608,-0.002436,-0.027974,0.048536,0.048531,0.099515,-0.078984,-0.027987,0.048549,-0.079008,-0.20652,0.048555,0.023041,-0.002491,-0.002461,0.17605,0.074051,0.048543,-0.002443,-0.12995,-0.12994,-0.053433,-0.002454,-0.05347,0.023047,-0.002467,0.023041,-0.027962,-0.027962,-0.053458,0.2526,0.023072,0.22708,-0.002448,-0.078984,-0.181,-0.027962,0.023029,-0.053488,-0.15546,-0.002423,-0.053464,0.023059,-0.078977,0.023035,0.09954,0.12505,0.12505,-0.053464,-0.053476,-0.15549,-0.20652,-0.027969,0.074026,0.12502,0.048518,-0.002472,0.048536,-0.027974,-0.053488,0.22709,-0.027938,-0.12996,-0.12995,0.074062,0.12505,-0.002491,-0.002472,-0.027969,0.12505,0.09957,0.048536,-0.18103,-0.078984,-0.12997,-0.02795,-0.02798,-0.027974,-0.25751,0.099577,-0.00243,0.023078,-0.053458,-0.027969,-0.027969,0.17607,-0.002454,-0.027962,-0.027969,0.20159,0.023059,-0.00243,-0.12998,-0.10449,0.048536,-0.027969,0.099546,0.12507,0.074069,0.074075,0.023072,-0.002467,-0.078984,-0.20651,-0.053464,-0.002461,0.074038,0.048531,-0.078996,0.048549,0.12508,0.023072,-0.28303,-0.13004,0.17609,0.074038,-0.053482,0.074038,0.023029,0.048531,0.074069,-0.002448,-0.15554,-0.053519,0.074026,0.07402,-0.027974,-0.10449,0.12511,0.048585,-0.23198,-0.18098,0.023005,0.048518,0.12504,0.074038,0.15056,-0.027962,-0.12998,-0.12997,-0.002454,0.023035,0.023023,0.074013,0.048536,-0.027974,0.074051,-0.18098,0.048561,0.048555,-0.002443,-0.027969,0.048518,0.02301,-0.002461,-0.078984,0.048549,-0.027969,-0.10449,0.09957,0.12505,-0.13002,0.048549,0.048543,0.099552,0.099546,-0.002461,-0.002461,0.12507,0.048555,-0.027962,-0.078984,-0.053495,-0.027993,0.12504,-0.027969,-0.15548,-0.002467,0.30358,0.074057,-0.23198,-0.41055,-0.053488,0.17604,0.22708,0.099564,-0.002443,0.048549,-0.10451,-0.12999,0.048536,-0.053488,-0.053495,-0.002491,-0.002472,-0.078984,-0.10449,-0.002461,-0.02795,-0.053458,0.048561,0.3546,0.17606,-0.10446,-0.18098,-0.2065,0.048567,0.099588,0.048561,-0.002423,0.099559,-0.053451,-0.15549,-0.027969,-0.002454,-0.002461,-0.078977,-0.02795,0.048549,0.023047,-0.078972,-0.13,-0.002479,-0.053488,-0.181,-0.078996,0.17604,-0.02795,0.074069,0.048561,-0.002448,-0.078984,-0.079008,-0.078984,0.023078,-0.002443,0.023035,-0.002479,0.048531,-0.053476,-0.078972,-0.12998,0.099552,-0.18101,-0.30855,-0.02798,0.074033,0.15057,0.15057,-0.053458,0.048567,-0.027944,-0.027974,-0.027993,0.023029,0.048518,0.048536,0.048561,0.09957,-0.053446,-0.027969,-0.181,0.074033,0.023023,0.048555,0.048543,0.074062,-0.078984,-0.05347,-0.078959,0.15056,0.15057,0.023035,-0.12998,-0.10447,-0.05347,0.023023,-0.078984,-0.181,-0.10445,-0.078977,-0.15552,0.099528,0.099546,0.22707,-0.027956,0.048585,-0.12997,-0.053458,-0.053488,-0.12999,-0.078984,0.12502,0.074033,-0.053482,0.048555,0.074038,-0.078966,0.048543,-0.15546,0.023065,0.15057,0.12502,-0.053495,0.023017,-0.053476,-0.13,-0.002467,-0.027962,-0.078953,-0.20647,0.074057,-0.027956,-0.027962,0.099534,0.12504,0.023035,0.12506,0.023047,-0.078966,-0.20649,-0.20653,0.048543,-0.10447,0.20159,0.12508,-0.15551,-0.23203,0.099559,0.09957,0.023054,0.023041,-0.079021,-0.10449,-0.078996,-0.10449,-0.027969,0.023035,0.099583,-0.002436,-0.10446,-0.078977,0.048549,-0.053482,0.023023,-0.027998,0.023005,0.099521,-0.053476,0.023041,0.048549,-0.07899,-0.12999,-0.15551,0.023035,0.023035,0.20158,0.12505,-0.053451,-0.078928,0.099601,-0.027962,-0.18103,0.02301,0.15056,-0.078972,-0.027969,0.099559,0.099559,0.074057,-0.002436,-0.05347,-0.20655,-0.18105,-0.002467,0.048536,0.099546,0.09954,-0.13,-0.10449,0.023054,0.12505,0.099546,-0.002479,-0.002485,0.074013,0.15054,-0.078984,-0.078959,-0.078947,0.023054,0.048536,0.074013,-0.002485,0.02301,-0.027993,0.074062,0.12507,-0.1045,-0.41054,-0.15548,-0.02795,-0.027998,0.074044,0.17605,-0.079008,0.02301,-0.053476,0.023041,-0.027969,-0.10447,-0.28302,-0.15551,-0.027987,0.099521,0.048525,0.15053,0.17605,-0.002461,-0.002436,0.074062,-0.181,-0.10451,0.074044,0.2271,0.22709,0.048555,0.048549,0.023035,-0.002454,-0.10444,0.023047,-0.027956,-0.053476,-0.002467,0.074057,-0.002448,-0.12998,-0.28301,0.048592,0.22711,0.099583,0.023059,-0.05347,-0.027969,0.074051,0.12504,0.09954,-0.027974,0.048567,-0.12998,-0.053464,0.074044,-0.20652,-0.078984,-0.15551,-0.12999,0.048536,0.09954,0.07402,0.048561,-0.07899,0.023041,0.074038,0.023017,0.048518,0.074075,0.074087,0.17609,0.099583,0.074069,0.074026,0.12502,-0.10449,-0.002485,-0.02798,-0.053476,-0.15551,-0.10448,0.048561,0.074062,0.17607,-0.002461,-0.002467,-0.027987,0.074038,-0.027974,0.12504,-0.07899,-0.15549,0.023035,0.099552,0.074051,0.023054,-0.027962,0.023041,0.048512,-0.053488,0.099546,0.12509,0.023065,0.023047,0.09954,-0.078966,-0.027969,-0.10448,0.12506,0.09957,0.023065,0.023029,-0.18101,-0.20652,0.09954,-0.027987,-0.079008,-0.20652,0.09957,0.27811,0.048585,0.023059,-0.027938,-0.053482,0.074013,-0.10451,-0.002485,-0.12999,-0.053476,-0.002436,0.15056,-0.18097,-0.002454,0.023023,0.074033,0.09954,0.023023,-0.10451,-0.027993,-0.027969,-0.02798,0.023065,0.048561,0.023035,0.048531,-0.027974,0.023041,-0.002461,0.023047,-0.027969,-0.027962,-0.027956,0.17606,0.099528,-0.002485,0.048549,0.17606,-0.12998,-0.23201,-0.18099,0.023029,-0.078984,0.17612,0.20159,0.074051,-0.13002,0.09954,0.12504,0.17604,-0.078966,-0.078941,0.023059,-0.053451,-0.053476,-0.10451,0.074013,0.048512,-0.002467,0.023054,-0.027956,0.023059,0.048567,-0.053476,-0.027956,0.074062,-0.002479,0.023005,0.048531,-0.053464,-0.053476,-0.053476,-0.027969,0.023072,0.074062,-0.027974,-0.079002,-0.002467,-0.07899,0.023023,-0.002479,0.074062,-0.002443,0.048567,0.099534,-0.15551,-0.002454,0.048549,-0.053476,-0.027987,-0.30853,0.074062,-0.10445,0.074062,0.15055,0.099521,0.074044,0.048549,0.048536,-0.25752,-0.027962,-0.002436,0.17605,-0.10449,0.099564,0.048531,0.15054,0.099546,0.15055,-0.002467,-0.10447,-0.002454,0.023041,-0.027969,-0.078972,-0.002467,0.023059,0.023047,0.074026,-0.002461,-0.12998,-0.002461,0.023035,-0.027969,0.099552,0.023029,-0.027998,-0.25754,-0.053506,0.25258,0.099552,0.12506,0.15056,0.12504,0.048536,-0.053476,-0.05347,0.023047,0.048536,0.023047,0.17607,0.074069,-0.027938,-0.23196,-0.12996,-0.053495,0.048518,-0.002472,-0.18099,0.048555,0.12506,-0.002461,-0.10445,-0.18097,-0.18099,-0.15548,-0.12999,0.023029,-0.002479,0.074051,0.12507,0.099583,-0.10445,-0.15548,0.074044,0.17607,0.22707,0.15058,0.074062,-0.027956,-0.078984,-0.12998,0.15059,0.12509,0.048561,-0.027987,-0.079002,-0.13,-0.027987,0.20155,0.074044,0.22708,-0.027931,-0.20646,-0.15548,-0.25754,-0.13002,0.048518,0.15055,0.15054,-0.05347,-0.12999,-0.23199,-0.078959,-0.002472,0.074038,0.12505,0.023023,-0.25753,-0.15553,0.02301,0.023059,0.023084,-0.053451,-0.002461,-0.027993,0.09954,0.048536,-0.027962,0.074044,-0.027969,-0.002454,0.048561,-0.15548,-0.20652,0.099552,0.048549,-0.002461,0.048555,-0.053488,-0.078966,-0.027969,0.074057,0.048555,-0.07899,0.048536,0.12505,0.09954,-0.1555,0.074062,0.074075,0.15058,0.023059,-0.027956,-0.18101,-0.13,-0.078984,0.17604,0.048512,-0.027969,0.099552,-0.027938,-0.002461,-0.18098,-0.0535,-0.079014,0.074013,-0.078996,0.023023,0.074013,-0.002485,-0.10446,-0.10447,-0.027969,0.099559,0.048525,0.074038,-0.078984,0.023047,-0.05347,-0.12999,0.023072,0.074081,-0.002479,-0.053482,-0.181,-0.15552,-0.0535,0.12505,-0.002461,-0.027956,0.048561,-0.053451,-0.053451,0.023017,0.099521,-0.079014,0.074038,0.099552,-0.18097,-0.053446,-0.078972,0.048531,-0.027993,0.17606,-0.002448,-0.12995,-0.002461,0.074038,0.048543,-0.027969,-0.053464,0.023078,-0.078977,-0.027987,0.074051,0.15055,-0.078984,-0.25751,-0.002461,0.17609,0.048573,-0.002454,-0.078966,-0.002467,0.023035,-0.07899,-0.002467,0.048536,-0.078953,0.074069,0.12507,-0.053458,-0.10446,-0.053464,0.023041,0.12505,0.02301,-0.027993,-0.002472,-0.027956,-0.078972,0.074087,-0.10445,0.099534,0.099521,0.074013,-0.15551,-0.002491,0.048555,-0.15547,-0.078947,-0.10444,-0.078953,0.048536,0.25252,-0.002467,-0.078984,-0.002436,0.023047,0.048561,-0.027969,-0.15547,-0.10448,0.023029,0.099534,0.12504,0.17606,-0.002461,-0.33403,-0.15549,0.12507,0.20161,-0.002454,-0.027956,-0.20653,0.12502,0.023017,0.09954,0.074044,-0.027956,-0.15547,-0.027962,-0.078972,0.048525,-0.002467,-0.18099,0.048543,0.02301,-0.002467,0.099564,-0.002436,-0.18098,0.048531,0.074013,0.023054,-0.027938,-0.18101,-0.18101,0.15056,0.074057,0.12507,-0.00243,-0.027962,0.048518,-0.079033,-0.12998,-0.15548,-0.002461,-0.10447,0.048531,-0.027969,0.25262,-0.002448,-0.002467,0.12502,0.074026,-0.002479,-0.20649,0.023035,-0.10447,-0.002454,-0.002454,0.023041,-0.053451,-0.053488,-0.10449,0.20153,0.074038,-0.053458,-0.10447,0.023035,0.09957,0.074038,0.023054,-0.02798,-0.10449,0.048549,0.023035,-0.002461,0.074069,-0.002443,-0.002448,-0.053458,0.12503,-0.13002,-0.13002,0.15057,-0.02798,-0.078984,0.12509,-0.078935,0.12507
-0.053495,0.048525,0.023029,0.074051,0.15057,0.099564,-0.12999,-0.2065,0.048531,0.048536,0.17606,0.074044,-0.053476,-0.05347,0.023054,0.074057,-0.12998,-0.15549,-0.078996,-0.053488,0.15056,0.048543,-0.002472,0.023054,0.15058,0.099564,-0.10448,-0.13001,-0.078984,0.15055,0.048531,-0.10449,-0.002467,0.09957,0.12506,-0.027969,-0.23201,-0.078984,-0.002472,0.12505,0.074038,0.023041,-0.078977,0.023054,0.048555,0.023059,-0.027974,-0.078984,-0.078996,-0.027974,0.099546,0.15057,-0.053464,-0.05347,-0.027962,0.074051,-0.053464,-0.053476,-0.053476,-0.10449,0.048531,0.15055,0.12507,-0.027956,-0.002443,-0.12999,-0.12999,-0.1045,0.074033,0.099534,0.15057,0.20157,0.099564,0.09957,0.09957,0.023059,-0.078972,-0.002467,-0.002472,-0.053476,-0.10449,-0.10448,-0.053476,0.048549,0.17607,0.023054,-0.027962,-0.181,-0.07899,-0.053488,0.09954,0.09954,0.074062,0.15058,0.023065,-0.027944,-0.15548,-0.15549,0.023035,0.023029,0.048536,0.023035,-0.002472,0.023035,0.023029,-0.002467,-0.12999,-0.15551,0.023017,0.023023,0.074038,0.15055,0.15056,0.20157,0.099577,-0.002443,-0.181,-0.078959,-0.053476,0.099552,-0.027969,0.099546,-0.027974,0.023035,0.099552,0.048549,-0.078966,-0.002461,0.074033,0.12506,-0.05347,0.048543,-0.027974,-0.027969,0.099559,-0.002467,-0.053482,-0.002472,0.074026,0.074044,-0.05347,-0.027962,-0.053464,-0.078972,-0.078966,-0.078977,-0.12999,-0.10449,0.099534,0.048531,0.099546,0.12505,0.20158,0.12507,0.12508,0.048561,-0.078972,-0.10449,-0.053482,-0.053482,-0.10448,-0.078972,-0.053464,-0.053464,-0.05347,-0.078972,-0.15549,-0.1045,0.02301,0.099546,0.12505,0.17606,0.074062,0.074069,0.048573,-0.053458,-0.10447,-0.027969,0.074057,-0.053488,-0.002467,-0.027974,0.074051,0.023047,-0.10448,-0.2575,-0.027993,-0.027974,0.30357,0.074051,-0.053464,0.15057,0.023059,-0.00243,0.12509,-0.053482,-0.12999,-0.002467,0.27805,-0.0535,-0.25745,-0.10447,0.07402,0.20155,0.12505,-0.385,-0.078935,-0.15548,0.32907,-0.10452,-0.18099,0.17607,-0.10449,-0.15551,0.022998,-0.1555,-0.002454,-0.18099,-0.053506,0.15052,-0.20653,0.27812,0.2526,0.048592,-0.00243,-0.20651,-0.15549,-0.1045,0.074013,0.023017,0.25259,0.32912,0.023041,-0.2575,-0.15549,-0.33405,-0.15551,-0.05347,0.099546,-0.12998,-0.15551,-0.20652,0.25257,0.2526,0.22712,-0.18097,-0.13001,-0.33401,-0.002454,-0.05347,-0.20651,-0.027962,-0.2575,-0.02795,-0.053439,-0.20649,-0.181,0.4821,0.22704,-0.002454,-0.20653,-0.18106,-0.20657,0.22711,0.32912,-0.15548,0.12509,-0.078977,-0.053464,-0.079008,-0.23205,-0.10449,0.048555,0.17608,0.22711,0.099601,0.12505,-0.078984,-0.13,-0.05347,-0.002472,-0.053482,0.048531,0.20157,-0.15548,-0.20652,0.023072,0.048561,-0.002485,-0.00251,-0.002503,-0.002467,0.15056,-0.002472,-0.07899,0.023065,-0.002448,-0.027956,0.074013,0.22705,0.15052,0.15056,0.2016,-0.10445,-0.20648,-0.2575,-0.078977,-0.07899,0.12505,-0.053488,-0.18099,0.12504,-0.002461,-0.15547,-0.20648,-0.28304,-0.10452,0.15056,-0.002461,-0.1045,-0.23203,-0.002461,-0.07899,-0.078972,0.30358,0.27808,-0.053488,-0.30854,-0.13005,0.17606,0.074062,-0.002467,0.074057,-0.12996,-0.078959,0.25259,-0.25753,-0.23201,0.27806,0.30359,0.074008,-0.20649,-0.002467,-0.027956,-0.12995,-0.078966,-0.33402,-0.2065,0.12504,-0.002461,0.32908,0.12507,-0.078977,-0.12998,0.12506,0.074033,-0.002461,0.074038,0.074044,0.023017,0.15054,-0.078977,-0.18098,-0.053451,0.15059,0.20158,-0.12996,-0.20647,-0.027987,-0.027969,0.22707,0.099559,-0.078972,-0.078972,0.12508,-0.002467,-0.18097,-0.078959,-0.18101,-0.33405,-0.05347,0.12509,0.074075,0.074062,0.1251,0.023065,-0.33402,-0.30855,-0.053525,0.20154,0.12505,0.12509,0.074051,-0.078966,-0.053464,0.15057,0.12504,-0.053464,0.074051,-0.232,-0.25753,-0.078984,0.12507,0.17607,0.023084,-0.027944,0.15056,0.09957,0.048555,-0.181,-0.12999,-0.02795,0.1251,-0.027956,-0.10447,-0.053482,-0.002472,0.15057,-0.053476,0.099552,-0.25754,-0.1555,0.099564,0.22711,0.20158,-0.18099,-0.12998,-0.15549,-0.079002,0.074044,-0.30856,-0.23203,0.3036,0.45664,0.12508,0.12506,-0.002443,-0.027962,-0.002461,0.023023,-0.30852,-0.07899,-0.13001,0.35458,0.25256,0.048567,-0.25748,-0.4105,-0.23199,-0.053488,0.20153,0.17603,0.12504,0.12508,0.22709,-0.002461,0.074062,0.023041,0.048531,-0.35954,-0.10447,-0.33404,-0.18098,0.35463,0.12508,-0.10452,-0.12998,-0.027962,0.048549,-0.13001,-0.027962,0.12506,0.15056,0.099559,-0.02795,-0.078941,-0.18096,0.12507,0.15054,0.15054,-0.20651,-0.00243,0.15059,-0.002443,-0.20647,-0.28298,-0.2065,0.15054,0.15052,0.048543,-0.053476,-0.15549,-0.002467,0.023054,-0.078959,0.1251,-0.12998,-0.23201,0.25071,0.32721,-0.23207,-0.41058,-0.027969,0.12509,0.15057,0.15059,0.12512,-0.002461,0.048543,-0.053458,-0.10448,-0.10452,0.099546,0.12505,-0.053464,-0.12998,0.074075,0.12508,-0.10447,-0.053476,-0.028005,0.12503,-0.027969,-0.027931,0.074062,0.12508,0.074081,-0.15551,-0.18105,0.38008,0.20157,-0.078984,-0.053451,-0.078947,0.099577,-0.053439,-0.027944,-0.027944,0.023047,-0.079002,0.048518,-0.002472,0.17607,0.074038,0.02301,-0.12998,-0.25752,0.074062,0.048561,0.023054,-0.181,0.17608,0.074038,0.074008,-0.15549,0.048567,0.15057,0.2271,-0.02798,-0.18101,-0.078984,0.099577,0.12508,0.023072,0.023054,-0.20649,-0.2065,-0.079014,0.023017,0.12505,0.074051,0.15054,-0.027974,-0.053464,0.048536,0.099552,-0.053458,-0.053482,0.12508,0.20159,0.12505,0.048531,-0.078966,0.04858,0.12508,0.32913,-0.15547,-0.38503,-0.30852,-0.002443,0.15059,0.15054,-0.027987,-0.38508,-0.18099,0.25263,0.17609,0.17607,-0.002461,-0.078984,-0.027974,-0.07899,0.023023,-0.053476,-0.15548,0.15059,0.023065,0.074062,-0.079008,-0.002491,-0.12998,-0.027969,0.17606,0.40559,-0.027969,-0.28299,-0.33399,-0.12998,-0.002461,-0.13002,0.074013,0.15053,0.12505,0.38009,0.12508,-0.33402,-0.078972,-0.053476,0.023035,0.12509,0.074062,-0.15551,-0.23202,0.023059,0.22707,0.27808,0.023065,-0.078972,-0.078984,-0.002491,-0.12998,-0.13,-0.05347,0.099559,0.12507,0.074062,-0.20651,0.074026,0.17606,0.20159,-0.13001,-0.283,-0.053446,-0.181,-0.23201,0.17608,0.25257,0.074057,-0.027969,-0.002467,-0.079021,-0.30856,0.048536,0.099583,0.074087,-0.002461,-0.027969,0.02301,0.074051,-0.053464,-0.28303,-0.10453,0.074038,-0.027931,-0.053446,-0.10446,0.023047,0.22705,0.38006,0.17605,-0.20649,-0.232,-0.07899,0.074062,0.074038,-0.002418,-0.10444,0.15054,0.022992,0.15053,0.17608,0.074081,-0.23202,-0.28306,-0.053488,0.048598,0.048567,0.17606,0.17607,-0.002467,-0.18101,0.07402,0.074044,-0.002443,0.048561,-0.078977,0.023065,-0.027969,-0.053476,0.074051,-0.1045,-0.053476,-0.027962,-0.05347,0.023041,0.22707,0.12505,-0.027993,-0.10449,-0.002461,0.099546,0.023047,-0.002436,0.074075,0.17607,0.09954,-0.20644,-0.027925,-0.18102,-0.4361,-0.23205,0.17607,0.3546,-0.23203,-0.23202,0.048585,0.12509,0.22707,0.17605,-0.027993,-0.002491,-0.002479,0.023035,-0.12996,-0.078972,0.023035,-0.078959,-0.027962,-0.10449,0.12504,0.074033,-0.078996,-0.10447,-0.002448,0.074081,-0.053427,0.04861,0.15056,-0.002497,-0.10452,0.048512,0.048531,0.048555,-0.002454,-0.20651,0.048567,0.17611,0.048555,-0.002503,-0.15554,-0.10448,-0.10447,0.15057,0.074062,-0.002467,-0.078947,-0.002448,-0.18105,-0.10453,-0.002454,0.099534,0.20159,0.17607,-0.12996,-0.05347,-0.10449,-0.283,-0.12998,-0.02798,0.022998,0.12504,0.20158,0.20158,-0.15549,-0.12996,0.048573,-0.078972,-0.20654,-0.00251,0.15055,0.023047,-0.078972,-0.053446,0.048561,0.023054,-0.078959,-0.1045,0.17609,0.048536,0.074044,-0.002467,-0.027993,-0.10449,-0.053476,0.099595,-0.002454,-0.15549,0.09957,-0.053482,0.048518,0.09954,-0.027998,-0.05347,0.12508,-0.02795,-0.12998,-0.18098,0.074057,0.023023,-0.002485,0.023035,0.074051,0.27807,0.099534,0.023054,-0.18094,-0.25748,-0.05347,-0.18102,-0.027998,0.074044,0.3036,0.15057,0.099546,-0.027962,0.023065,0.048549,-0.25753,-0.15551,-0.027987,-0.002467,0.15057,0.12509,0.048555,-0.002454,-0.027962,-0.027969,-0.05347,0.099564,-0.079008,-0.18103,-0.002479,0.20161,-0.027938,0.15057,-0.027956,0.09954,0.023017,-0.20653,0.099515,0.15059,-0.2065,-0.23201,0.15064,0.17611,0.099577,0.27804,-0.15553,0.074033,-0.12999,-0.053482,0.023017,0.17607,0.27808,-0.027944,-0.027969,-0.053495,0.099534,0.02301,0.074026,0.023023,0.074026,-0.027969,0.023029,-0.027974,0.074051,0.023041,0.048531,-0.18103,-0.13003,0.17605,0.20158,0.048536,-0.002479,0.074081,-0.002443,-0.002443,0.20157,-0.027962,-0.02798,-0.053513,0.22707,0.048536,0.074075,-0.12996,-0.027938,0.15059,0.099521,0.023017,-0.2065,-0.12998,-0.002443,-0.002467,-0.002461,0.074069,0.12507,0.12505,-0.00251,-0.18104,-0.027974,0.099534,-0.002472,0.09957,-0.027938,-0.053446,0.048555,0.15056,-0.079008,-0.25757,0.15055,0.20159,0.023059,0.074051,-0.078984,-0.10447,-0.027956,-0.002479,-0.12999,-0.002472,0.15059,-0.15551,0.048506,-0.002472,0.04858,0.074081,0.099564,-0.13002,-0.0535,-0.027974,-0.027974,-0.053495,-0.18099,0.023065,0.25259,0.048555,-0.12996,-0.07899,0.099521,-0.053476,-0.2575,-0.002448,0.048506,0.25254,-0.027993,-0.078959,-0.12997,-0.053433,0.25263,0.17607,-0.15553,-0.13003,-0.002491,0.17605,-0.002448,0.023078,0.099595,-0.10449,0.048536,-0.078984,-0.10452,0.099497,-0.078996,0.12507,-0.10446,-0.18099,0.099559,-0.1045,0.023017,0.12505,-0.078996,-0.13,-0.053482,-0.027969,-0.10448,-0.027956,0.17606,0.15056,-0.15553,-0.23204,-0.10449,-0.002472,0.20155,0.12506,-0.027969,0.023059,-0.12999,0.15059,0.074013,-0.23205,-0.053537,0.099559,0.023047,0.099559,0.023059,-0.027962,0.023059,-0.15546,0.099552,-0.078984,-0.18101,-0.028005,0.15055,0.099564,0.12506,-0.2575,-0.05347,-0.02798,0.074033,0.15056,0.099546,-0.002461,-0.002467,0.12505,-0.027969,-0.2065,-0.25751,0.048549,0.17608,0.074069,-0.027987,-0.002454,0.12507,-0.002479,-0.078984,-0.12998,0.09957,0.27808,0.048531,-0.002479,-0.07899,-0.13,-0.078972,-0.002467,-0.002436,0.023059,0.048561,0.074033,0.12501,-0.053488,-0.002479,0.023059,-0.078959,-0.0535,-0.002479,0.074044,0.074062,0.15056,0.074051,0.074051,0.048536,-0.23205,-0.20655,-0.15547,0.12508,0.32912,0.074069,0.023047,0.20157,-0.10448,-0.027993,-0.13002,-0.027969,-0.027969,0.074069,0.12508,-0.181,-0.027969,-0.078996,0.048536,0.099546,0.023041,0.048543,0.074069,0.023041,0.048543,0.09957,-0.078972,-0.002472,-0.12998,-0.10449,-0.053525,0.023029,0.023065,0.023072,0.023054,0.20156,0.099564,-0.15551,-0.078996,0.20156,0.048531,-0.12996,-0.027969,0.074033,-0.078966,0.048585,-0.053476,-0.079002,-0.18103,0.099552,0.17607,0.023065,0.048536,0.023035,0.048567,0.09957,-0.23203,-0.15551,-0.027969,-0.053464,0.023035,0.048555,0.048543,0.023005,-0.002467,0.074069,0.17606,-0.18101,-0.05347,0.15054,0.09957,0.023054,-0.10447,-0.053482,0.12505,0.099546,0.17607,0.099559,-0.002448,-0.027987,-0.13002,-0.13002,-0.027962,0.023059,0.15059,0.1251,0.023059,-0.028005,-0.15553,-0.23203,0.12508,0.27811,-0.002467,-0.002479,0.12505,-0.30849,-0.10447,0.20158,-0.079008,-0.13002,-0.053506,0.023047,-0.053451,0.099564,0.099564,0.099552,0.12507,0.074038,-0.053476,-0.18102,-0.13,0.023029,0.074051,0.17607,-0.027956,-0.15548,-0.002454,0.074026,-0.12997,0.023041,-0.002479,0.099564,0.099559,0.074075,-0.027974,0.023035,-0.20655,0.20157,0.1761,-0.12998,-0.078984,-0.12998,0.074044,0.20157,-0.053482,-0.15547,0.15058,0.074026,-0.079014,-0.20655,-0.078959,0.17609,0.20158,-0.053464,-0.002461,-0.002461,-0.027956,-0.078972,-0.079002,0.074008,0.074051,-0.002443,0.023047,0.074057,-0.053476,-0.02795,-0.078972,-0.027969,0.048549,0.023023,0.12505,0.023035,-0.23203,-0.15548,-0.027956,0.30359,0.12509,0.12509,0.023035,-0.053495,0.074026,-0.12999,-0.027956,-0.027962,0.074069,-0.10446,0.023035,0.074013,-0.078972,-0.053476,-0.027962,-0.13001,0.17609,0.22712,-0.078984,-0.13002,0.074038,0.17607,-0.05347,-0.02798,-0.02798,-0.053488,-0.002454,-0.027962,0.048573,-0.12996,0.12508,-0.053519,-0.15554,-0.13004,-0.078984,-0.002418,0.15061,0.023059,0.074057,0.074057,-0.002472,-0.12997,-0.002461,-0.028023,-0.053531,-0.0535,-0.053439,0.048573,0.2016,0.2271,0.074057,0.023017,-0.027987,-0.10449,-0.13,-0.10448,0.099546,0.15057,-0.078966,-0.05347,-0.027969,0.12507,0.22711,-0.002472,-0.25756,-0.053531,0.20156,0.048573,-0.002448,-0.027931,-0.053476,-0.10451,-0.078984,0.074044,0.12505,0.074044,-0.10447,0.048536,-0.2065,-0.30852,0.15057,0.074044,0.048536,-0.027987,0.02301,0.12505,-0.078977,-0.078972,-0.078923,0.048585,0.074051,-0.23203,-0.13002,0.074026,0.074026,0.12505,0.048543,-0.002443,0.023084,-0.053427,-0.12999,-0.15552,-0.10453,-0.027974,0.3546,0.099546,-0.002485,-0.07899,-0.053439,0.048549,0.12504,0.17604,0.048543,-0.18098,-0.15548,0.1251,-0.053488,-0.28305,-0.078977,0.17609,0.32912,0.023035,-0.30852,-0.25753,0.074038,0.074051,-0.002472,0.25257,0.074057,-0.18095,-0.181,-0.078996,-0.027969,0.099546,-0.053482,-0.02798,-0.12998,-0.02795,-0.002443,0.048555,-0.078996,-0.20651,-0.002467,0.099564,-0.002467,0.15055,0.099534,0.12507,-0.002448,-0.28298,-0.23202,0.099521,0.15054,0.074062,0.023047,0.099564,-0.10447,0.074044,-0.027969,-0.002497,-0.078984,-0.10447,0.09957,0.074051,-0.02798,-0.13001,-0.053506,0.17607,0.099559,-0.053451,-0.078966,-0.10447,0.099546,-0.15551,-0.20651,0.17606,0.15057,0.099588,-0.18097,0.074044,0.074013,0.15054,0.20156,-0.078996,-0.25754,-0.15548,0.15059,0.048561,0.099577,0.048592,0.12507,0.048518,0.099521,-0.13001,-0.10449,-0.078996,0.15057,0.074038,-0.00243,-0.078941,-0.15553,0.023029,-0.002503,0.12506,-0.10449,0.048536,-0.053488,0.074038,-0.027931,-0.12995,0.048543,-0.027969,0.048531,0.099503,0.07402,0.09954,-0.07899,-0.078941,-0.12991,-0.10448,-0.15552,0.099546,0.12507,-0.027962,-0.002485,-0.027993,0.20153,0.09954,0.023078,-0.002448,-0.15549,-0.05347,-0.079008,-0.15549,-0.10448,0.099588,-0.05347,0.12508,0.099552,-0.027987,-0.002516,-0.027969,0.048531,-0.10449,-0.053458,-0.002448,-0.027944,-0.027969,-0.05347,0.023054,-0.002472,0.022998,0.32908,0.17604,0.074051,-0.18098,-0.12996,-0.18098,-0.12999,0.023035,0.15057,-0.10448,-0.078977,0.074033,-0.002443,-0.12999,-0.02798,0.32907,-0.027993,-0.181,-0.053446,-0.027962,0.12502,0.15054,0.12507,-0.078947,-0.15547,-0.05347,-0.053506,0.074044,0.048536,-0.079014,-0.079002,0.074026,0.074062,-0.05347,-0.027969,0.074069,0.12509,-0.027962,-0.35958,0.074033,0.17606,0.1506,-0.053446,-0.027944,-0.027956,0.074057,0.048573,-0.10445,0.023047,0.099534,0.12504,0.12504,0.12507,0.048567,-0.10447,-0.053458,-0.18095,-0.23198,-0.002454,0.15056,0.099528,0.074026,-0.053488,-0.027944,-0.002436,0.023072,0.074075,0.12508,-0.053488,-0.13,0.17606,0.09954,-0.002461,-0.00243,-0.18095,-0.053433,0.09954,-0.053495,-0.18103,-0.02798,0.074062,0.023047,0.023023,-0.002497,-0.1555,-0.027944,0.048561,0.074075,0.17604,-0.027962,0.023054,-0.053495,-0.053476,-0.002485,-0.002461,0.12507,-0.10445,-0.20649,-0.02798,0.048525,0.074038,0.12505,0.074051,-0.078966,-0.1555,-0.20649,-0.078935,0.15054,0.22704,-0.002491,0.074057,-0.13,-0.25753,0.074044,0.099559,0.048555,0.09957,0.15055,-0.12998,-0.12999,0.074038,-0.002485,0.17605,0.20158,0.023047,-0.25753,-0.13,-0.002436,0.20159,-0.05347,0.074038,-0.002479,0.12506,-0.027962,-0.20652,-0.078972,0.12509,0.099534,0.048525,-0.15549,-0.027974,-0.028005,-0.002479,0.048549,0.12506,0.023041,-0.23198,0.048567,-0.027938,0.074057,0.099564,-0.23204,-0.20652,0.15058,0.20158,0.099564,-0.053458,0.074051,-0.027987,0.12505,-0.002485,-0.18105,-0.25757,0.04858,0.17612,0.074081,0.15058,0.048536,-0.002467,-0.027956,-0.053495,0.07402,0.02301,-0.18099,-0.027969,0.074051,0.15059,0.17608,0.074044,-0.027993,-0.23201,-0.027987,-0.053464,-0.002467,-0.002472,0.023072,-0.02795,-0.053495,0.17605,-0.10449,-0.002467,0.048561,0.074038,0.023017,0.048543,-0.10444,-0.078941,0.048549,-0.0535,-0.15551,-0.002467,0.048518,-0.002472,0.048567,0.048567,0.12508,-0.13,-0.20652,0.048518,0.048555,-0.027998,0.099546,-0.12998,-0.078947,0.023059,0.15058,0.17605,0.048512,-0.12998,0.048536,-0.002479,-0.10453,0.048531,-0.10445,-0.027944,0.17608,-0.002448,-0.0535,-0.002454,0.048536,-0.18105,0.074038,0.09954,0.099583,-0.078947,-0.053458,-0.078984,-0.10448,0.048525,-0.027974,0.15056,0.074026,-0.027969,-0.002472,0.12507,-0.10445,-0.12997,-0.053488,-0.002497,0.15054,-0.078977,0.15059,-0.078977,-0.181,-0.10448,0.074062,-0.053451,0.074051,0.048561,0.048543,0.022998,0.074033,-0.10448,0.048567,-0.053439,-0.15548,-0.053525,0.12504,-0.002491,0.20159,-0.078953,-0.002461,-0.002491,0.074033,-0.05347,0.023054,0.023072,0.048543,-0.053476,-0.12999,-0.053482,0.023035,0.048531,0.074044,0.023065,-0.10449,-0.027974,0.074051,0.023047,0.074038,-0.002454,0.023035,0.048531,-0.002479,-0.027944,-0.12996,0.02309,-0.002467,-0.00251,-0.002497,0.2781,-0.18104,-0.23205,0.023054,0.15061,0.099595,0.023072,-0.002461,0.074013,-0.181,-0.053525,-0.027993,0.048555,0.023054,-0.053451,-0.027938,-0.027956,0.048531,0.048518,0.099546,0.048536,0.074044,-0.181,-0.053482,0.15058,0.023047,0.048573,-0.027962,0.07402,-0.15552,0.074044,0.20155,0.099559,0.048555,-0.078947,-0.053464,-0.002454,-0.027969,0.099534,-0.002479,0.023041,-0.07899,0.02301,-0.028005,-0.18103,0.0741,0.17612,-0.10445,-0.053476,-0.10452,-0.053519,0.099528,0.2271,-0.002443,-0.002443,0.15056,0.20158,-0.053495,-0.18101,-0.18101,0.074013,0.023059,0.12505,0.023041,0.074038,-0.027944,-0.053433,-0.12999,0.074038,0.023035,-0.07899,-0.002491,0.15055,0.023059,-0.002443,-0.078959,-0.10448,0.15057,0.12507,0.023035,-0.027987,0.023029,-0.053458,-0.002485,0.074051,0.023059,-0.053451,0.048543,-0.053495,-0.1045,-0.07899,-0.053482,-0.002485,-0.078947,0.12509,0.048549,0.12505,0.023047,0.023041,-0.0535,-0.027969,-0.10449,-0.13,-0.002472,-0.05347,-0.053458,0.074075,0.074026,-0.002491,-0.078984,-0.10447,0.023041,-0.053488,-0.002461,0.023059,0.023059,0.023078,-0.078959,-0.13,-0.002467,0.12501,0.023035,-0.027969,0.048561,0.023072,-0.002454,-0.053458,0.02301,0.048512,0.0485,-0.13001,0.023047,-0.002443,-0.10446,-0.18101,0.048573,0.048567,-0.053458,0.023023,0.12504,-0.002497,-0.002491,-0.12998,-0.18098,-0.02798,0.074087,-0.078972,-0.053506,-0.1555,-0.053446,0.099559,0.12505,0.17606,0.074062,0.15055,-0.10448,-0.053464,-0.13001,-0.079002,-0.027969,0.048543,-0.002467,-0.10449,-0.078977,-0.10448,-0.002461,0.12508,0.023047,0.12505,-0.053495,-0.0535,-0.027974,-0.053464,0.1251,0.023047,-0.02795,-0.027969,-0.002472,0.15056,0.22705,-0.28305,-0.18103,0.048536,0.17608,0.074075,0.20161,-0.027944,-0.027962,-0.10452,0.15054,0.023017,-0.027974,-0.002448,0.15056,-0.078953,-0.20649,-0.15549,0.12506,0.074051,-0.002472,0.048536,0.048531,0.099546,-0.02795,0.2781,0.09957,-0.181,-0.15553,-0.18103,0.15059,0.09957,-0.002454,-0.027987,0.074038,-0.10447,-0.15547,0.074069,0.20158,0.099521,-0.46162,-0.002479,0.074075,0.17609,-0.027925,0.12509,0.048573,-0.10447,-0.027969,-0.002485,-0.053476,-0.053482,0.02301,-0.027993,-0.05347,-0.078959,0.048555,-0.002467,-0.053506,-0.002479,-0.053464,0.048536,0.099552,0.048549,-0.20647,-0.078953,-0.078941,0.12506,0.023047,-0.053482,0.074057,0.074038,0.048543,-0.002479,-0.078977,-0.002461,-0.002448,0.15059,0.099546,-0.13004,-0.10453,-0.078996,0.15059,0.074057,0.20159,-0.00243,-0.002436,-0.078977,0.023054,0.023047,-0.027956,-0.002461,-0.027974,0.048543,0.074044,-0.053464,-0.053464,-0.12998,0.074038,0.048536,-0.053476,-0.1045,-0.002491,0.12504,-0.027956,0.048543,0.023059,-0.053458,-0.02798,-0.10449,-0.027974,0.023054,0.074057,0.12505,-0.027969,-0.05347,-0.15546,-0.078941,-0.053458,-0.053464,-0.002485,-0.13,-0.13,-0.18101,0.048518,0.074033,0.12506,-0.12999,-0.02798,-0.079014,0.12505,0.12504,-0.078996,0.099528,-0.053488,0.074062,-0.10449,-0.02798,-0.027987,-0.053513,0.023023,-0.053476,-0.027969,0.074044,0.023047,-0.053446,-0.10447,0.074044,-0.027969,-0.053506,-0.13001,0.023023,0.099521,-0.002461,0.048561,0.074062,0.023065,-0.078959,-0.053476,-0.13,-0.13001,-0.15551,0.023041,0.048561,0.12507,0.023029,0.023041,-0.10445,-0.002436,-0.002467,0.099552,-0.053482,-0.12997,-0.15549,-0.002448,-0.05347,0.023059,0.074062,-0.027974,-0.002461,0.048555,-0.002485,-0.2065,-0.027969,-0.1045,0.17604,0.12507,0.023047,0.023041,-0.027993,-0.002479,0.12506,-0.027969,0.17604,0.074044,-0.05347,-0.15548,-0.10448,-0.053482,0.074051,0.15057,-0.027974,-0.053482,0.15054,-0.078984,-0.053476,-0.078966,0.09957,0.15054,0.048531,-0.078984,-0.20652,-0.181,0.12506,-0.12997,0.15058,0.20159,-0.12997,-0.002479,-0.13001,-0.079002,0.15054,0.15054,0.099534,-0.05347,-0.12997,0.074081,-0.002443,-0.053464,-0.002472,0.048543,-0.13,-0.07899,0.09954,-0.002479,-0.15549,-0.078977,-0.05347,-0.053495,-0.079008,0.12503,0.023029,-0.002503,-0.10449,-0.002479,-0.10448,0.074069,0.12505,0.15053,-0.027993,-0.13002,-0.15553,-0.13,-0.002461,0.074044,-0.027962,-0.15549,-0.053458,0.09954,0.07402,-0.078977,0.023029,0.074026,0.023041,-0.002443,0.023072,-0.002399,0.023065,-0.15551,-0.30855,-0.053476,0.074062,-0.053476,-0.079002,-0.027998,0.17606,0.099564,-0.002485,0.048512,-0.079008,-0.12998,-0.027969,-0.002454,-0.002448,0.048573,0.04858,-0.027938,0.074057,0.20155,-0.10451,-0.1045,0.02301,0.02301,-0.002461,0.074081,-0.18096,0.04858,-0.002467,-0.053506,-0.07899,-0.002479,0.048536,0.048531,0.20155,0.023054,0.048567,-0.10446,0.023029,0.12502,-0.1045,-0.027944,-0.078959,-0.078977,-0.002479,0.22706,0.023047,-0.18098,-0.053464,-0.002485,0.12503,0.15056,0.074057,-0.078972,0.023041,0.074044,0.074081,-0.053446,-0.20647,-0.078977,0.07402,-0.053495,0.12502,0.074051,0.074069,-0.078977,-0.10445,-0.027931,-0.078996,0.12504,0.099552,0.074044,-0.027969,0.023023,-0.10449,-0.053464,0.12509,0.048555,0.074033,-0.002461,-0.027962,0.07402,-0.13001,-0.002479,0.048561,0.023047,-0.05347,0.023047,0.023054,0.048543,-0.002485,-0.053506,0.023017,-0.002461,-0.02795,-0.002461,-0.027969,-0.10447,0.023054,0.20152,-0.027962,-0.232,0.023029,0.12505,0.048531,-0.002461,-0.027969,-0.10448,0.023047,0.17607,-0.078972,-0.002479,-0.10451,-0.10449,0.17607,0.17607,0.048567,-0.02795,-0.15548,0.02301,-0.078996,-0.002467,-0.05347,0.12505,0.048536,0.023035,-0.027944,-0.078941,-0.078947,-0.002485,0.07402,-0.10451,-0.002479,0.15056,0.023047,0.12504,-0.10447,-0.002443,-0.027969,0.074069,0.048549,-0.002472,0.074033,-0.053488,0.023029,-0.053476,-0.002461,0.12505,0.099546,-0.05347,-0.078972,-0.002454,0.099559,-0.05347,-0.10447,-0.05347,0.074069,-0.027944,-0.23198,-0.027974,0.048518,-0.10449,-0.027969,-0.05347,-0.053476,-0.13,0.023035,0.074051,-0.15552,-0.18103,0.099528,0.17606,-0.002472,-0.05347,-0.027962,0.023059,0.048561,0.048561,-0.002467,-0.02798,-0.20651,-0.13001,0.023029,0.023023,0.12504,0.074057,-0.078972,-0.053439,-0.002443,0.15056,-0.078984,-0.10449,0.048531,0.20156,0.074038,0.074062,0.22707,0.12508,-0.002443,-0.027962,-0.1555,-0.078984,-0.078972,-0.078953,-0.10447,-0.05347,0.048561,0.074062,0.17604,0.048506,0.12501,-0.12999,-0.05347,-0.027956,0.048573,-0.002472,-0.079002,0.048543,0.12506,-0.027969,-0.13001,0.048525,-0.002503,-0.13001,-0.10449,-0.002472,0.12507,0.20157,0.12505,0.074033,0.023035,0.12505,-0.02798,0.048536,0.048561,0.048555,-0.18097,-0.15549,-0.05347,0.07402,-0.078984,0.023041,0.099552,0.07402,0.074038,0.12508,0.023065,-0.002443,0.048536,-0.078996,-0.078984,0.074026,-0.002461,0.074038,0.099546,0.074062,-0.078947,-0.18098,-0.10451,0.22707,-0.053464,-0.027962,0.048531,0.023041,0.023047,-0.053476,-0.05347,-0.23199,0.09954,0.074062,-0.002461,-0.078996,-0.002485,0.15055,0.12505,-0.15549,-0.027931,-0.12994,0.023047,0.048531,0.023035,0.099546,-0.002461,-0.002467,0.048567,0.099534,-0.05347,0.023047,0.048518,-0.053458,-0.1045,-0.027987,-0.002497,0.099521,0.12508,0.17609,0.023054,-0.10447,-0.02798,-0.02798,-0.002472,-0.18102,-0.20655,-0.002467,0.25262,0.12508,0.12509,-0.002443,-0.05347,-0.027993,-0.002479,-0.027993,-0.002485,-0.078996,0.048567,0.048555,0.023059,0.048573,-0.002448,-0.079002,-0.13001,-0.027998,0.048525,0.074033,0.09957,0.074081,0.023059,-0.027944,-0.002472,-0.13001,-0.02798,0.074026,0.12502,0.023054,0.048567,-0.027944,-0.027944,0.048555,-0.053488,0.023005,-0.078996,0.023029,0.023023,0.048567,-0.002454,-0.002454,-0.027956,-0.15549,0.048536,0.09954,0.023035,0.099546,0.048536,0.048536,-0.05347,0.074044,0.048561,-0.12993,-0.15546,-0.078977,0.12503,0.074033,-0.05347,-0.078972,-0.053476,-0.12999,-0.13,-0.078959,0.15057,0.074051,-0.027987,-0.002461,-0.078984,0.048531,-0.027962,-0.05347,-0.002454,0.023047,0.12504,0.074026,0.074044,-0.078966,-0.002467,-0.053476,-0.027962,0.023041,0.12509,0.048573,-0.027969,-0.028005,-0.13001,0.20155,0.048512,-0.053476,-0.053451,0.048561,-0.027969,0.023041,-0.10446,-0.10448,-0.027969,-0.002443,-0.05347,-0.027956,0.074057,0.023054,0.074062,-0.053451,-0.053482,0.023017,0.023005,-0.027998,-0.181,-0.053476,-0.002472,0.048531,0.023029,0.074062,-0.002479,-0.20655,-0.002461,-0.027969,0.12505,-0.002467,0.099552,0.074069,0.023072,-0.002443,-0.027969,-0.053476,-0.15549,-0.002516,0.20153,-0.10449,-0.02795,-0.053446,-0.078935,-0.027944,0.02301,0.02301,0.048536,0.048536,-0.078996,0.074057,0.048536,0.023059,-0.078953,-0.078947,-0.053482,0.048525,-0.002479,0.099528,0.099546,-0.027969,-0.15548,-0.15548,-0.10447,0.074051,0.074069,-0.002485,-0.053506,0.15054,0.099528,-0.002472,-0.053451,0.048561,-0.053446,-0.20647,-0.078984,-0.002479,0.048549,-0.07899,0.099534,-0.078984,-0.002467,0.099559,-0.002448,-0.002448,-0.02795,-0.053495,-0.002491,0.02301,-0.053488,-0.027969,0.023041,0.023059,0.074062,-0.002448,-0.078996,-0.0535,0.048536,0.023035,0.099546,-0.002454,-0.15549,-0.18097,0.074044,0.048549,-0.002472,0.048543,0.023047,-0.078977,-0.07899,-0.002479,-0.053488,-0.053476,0.023041,-0.027956,-0.078972,0.074051,0.074044,-0.002461,-0.078977,-0.078984,0.048536,0.074033,-0.02795,-0.053446,-0.15548,-0.15553,-0.10448,0.048536,0.20156,0.023023,0.12505,0.023054,-0.15546,-0.053458,-0.10447,-0.053495,-0.13001,0.023029,0.15054,0.12504,0.12507,-0.027944,-0.002436,0.048561,0.074044,-0.0535,-0.181,-0.02795,-0.053458,0.12509,0.023065,0.074062,-0.02795,-0.05347,0.023029,0.099528,0.12504,0.023023,0.048549,-0.053476,0.023023,0.074044,-0.053458,-0.027956,-0.027974,0.023041,-0.15548,-0.20651,-0.078996,-0.053476,0.099559,0.20155,0.023041,-0.027969,0.15054,0.17605,0.074062,0.023059,-0.02795,0.023041,-0.027974,-0.10447,-0.10449,0.074057,0.048536,0.074062,0.074044,-0.002485,-0.10449,-0.053482,0.048531,-0.027987,-0.18099,-0.053464,0.12509,0.17607,-0.10449,-0.078977,-0.05347,-0.002461,0.023035,-0.053482,-0.002485,-0.027962,0.048525,0.074033,0.023035,-0.10447,-0.12998,0.09957,0.023072,-0.002443,0.048573,-0.027956,-0.078977,-0.13001,-0.1045,-0.053495,-0.027987,-0.053476,-0.15549,0.023041,0.09957,0.25258,0.048549,0.023029,-0.10449,-0.027987,-0.002472,-0.15549,-0.053476,-0.027962,-0.10448,0.023041,0.048555,-0.027974,-0.027998,0.15054,-0.002461,0.074075,-0.027956,-0.10449,0.074051,-0.002472,-0.027962,0.048536,-0.053482,0.023023,0.074057,-0.15548,-0.078977,0.17606,0.09957,-0.18098,-0.078972,0.02301,0.099528,0.074026,-0.1555,-0.15548,-0.002454,0.17607,0.048549,0.15059,-0.027956,-0.13001,-0.20655,-0.13,0.023041,0.099552,0.2271,0.099564,-0.053458,-0.18099,-0.002479,-0.12999,-0.12996,-0.078996,-0.078996,0.12504,0.099564,0.023059,-0.053458,0.023035,0.12503,0.048536,-0.12999,-0.053495,-0.002479,0.048561,0.023054,-0.053451,-0.18097,-0.10449,0.09954,0.048536,0.048549,0.048555,0.048531,-0.07899,-0.002472,0.099577,0.074069,0.048555,0.023023,0.023005,-0.027974,-0.002448,-0.15549,-0.078984,0.099564,0.074051,-0.10445,-0.12999,0.02301,-0.002485,-0.002467,0.09957,0.023035,-0.18102,0.023047,0.12507,0.22707,-0.027944,-0.002461,-0.053506,-0.053476,-0.10447,-0.07899,0.099559,0.048561,-0.05347,0.099552,-0.002467,0.023023,-0.002467,-0.027993,-0.002472,-0.027956,-0.10445,-0.1045,0.25257,-0.002448,0.04858,-0.02798,0.12502,0.048536,-0.15548,-0.10449,0.023023,-0.02795,0.074062,0.074069,0.099564,-0.12999,-0.079008,-0.2065,0.15054,0.074044,0.17607
