-0.13,-0.078996,-0.053482,0.048531,-0.053488,0.099552,0.12506,-0.05347,0.023047,0.25259,-0.053495,-0.18101,-0.05347,0.099559,0.023017,0.09954,0.12505,0.048536,-0.053451,0.023054,-0.078966,-0.232,-0.10449,0.023029,0.023029,0.12505,0.22708,-0.05347,0.048561,0.023059,-0.15547,-0.20649,-0.10447,-0.053495,-0.053495,-0.053495,-0.02798,-0.027969,0.074051,0.099552,-0.05347,-0.002454,0.023047,0.048536,0.048525,0.048525,0.023047,-0.078972,-0.05347,0.074062,0.12507,0.048555,0.048536,-0.027974,-0.05347,-0.10447,0.023054,0.023047,-0.002472,0.099559,0.048549,-0.002461,0.023029,-0.13001,-0.23202,0.074057,0.099552,-0.078966,-0.12996,0.074051,0.15057,0.12507,-0.20651,-0.10451,0.22707,0.099552,-0.027962,-0.002448,0.12507,0.15057,0.023047,-0.2065,-0.13001,0.023023,0.15055,0.17606,0.099546,-0.053476,-0.002454,0.12508,0.15057,-0.1555,-0.35955,-0.05347,0.074044,0.20156,0.20156,0.15056,0.12509,0.023072,-0.18098,-0.13,-0.078977,-0.07899,-0.078996,0.22705,0.25257,0.20157,0.074062,-0.027956,-0.15548,-0.232,-0.078984,0.099534,0.074044,0.023041,-0.027969,0.074044,0.023059,0.099559,-0.12999,-0.23201,-0.078996,0.15054,0.023023,0.048531,-0.027969,0.023047,-0.10447,0.074069,-0.027962,-0.078977,-0.181,-0.10449,-0.002479,0.20155,0.15056,-0.002461,-0.10447,0.099564,0.12507,-0.12999,-0.13,-0.18101,-0.12999,0.17606,0.048543,0.074062,0.023041,-0.002454,-0.002485,-0.13,-0.10451,-0.027987,0.048525,0.023023,0.048525,-0.053482,-0.027956,0.074044,-0.002443,-0.15548,-0.027969,-0.10449,-0.10451,0.048536,0.17606,0.20158,0.27809,-0.002461,0.048573,-0.10449,-0.027969,0.20156,-0.002454,-0.20649,-0.25754,-0.053476,-0.20656,-0.027969,0.38012,0.1506,0.074069,0.099534,-0.25751,-0.07899,0.023023,0.53308,0.15062,-0.48702,-0.33404,-0.58913,0.27811,0.32911,0.099559,0.048536,0.25259,-0.002443,-0.25751,0.048555,0.25256,-0.078984,-0.20652,-0.079008,0.15055,0.023059,-0.18103,-0.002467,0.04858,0.22712,0.099564,-0.25755,-0.20651,0.12504,-0.13001,0.15058,0.023065,0.32913,0.32913,-0.10449,-0.35956,-0.25756,-0.38505,-0.002436,0.27809,0.25256,0.023035,0.048549,-0.33402,-0.15546,0.023059,0.25256,0.20157,0.099546,-0.28302,-0.15551,0.023029,-0.002436,0.023029,0.20156,0.20158,-0.58906,-0.15551,0.099564,0.2526,0.22706,0.17607,0.048536,-0.10449,-0.41058,0.12509,-0.078959,-0.10447,0.074069,-0.027974,-0.15549,0.15054,0.048543,0.35462,0.023059,0.023072,-0.4871,-0.76767,-0.30858,0.35463,0.48216,0.2526,0.048555,0.023047,0.40561,-0.10447,-0.10449,0.099552,-0.002448,-0.25753,-0.38506,-0.23204,0.1506,0.099552,0.099515,0.048536,0.20159,-0.23196,0.17611,-0.053495,-0.35957,0.099552,0.2526,0.074081,-0.078984,-0.1555,0.023054,0.38014,-0.33405,-0.94625,-0.48717,0.40566,1.3495,0.30366,-0.48713,-0.8697,0.099608,0.32916,0.12508,0.17608,0.17607,0.27809,-0.13004,0.023023,0.12508,-0.12999,-0.30851,-0.078984,0.17606,-0.053476,-0.30854,0.02301,0.30358,0.38014,-0.027962,-0.28301,-0.053458,0.30363,-0.078996,-0.23205,-0.10452,0.32912,0.40565,-0.23205,-0.46159,-0.4871,0.58419,0.43113,-0.002491,-0.079008,-0.028018,-0.15551,0.12508,0.20158,0.17609,-0.078972,0.099577,0.15057,-0.053482,0.022998,0.099546,0.22707,0.048543,-0.027962,0.023078,-0.053451,-0.41053,-0.38504,-0.25751,-0.027969,0.22706,0.35458,0.20157,0.048585,0.09957,-0.25749,-0.46154,-0.053464,-0.20653,-0.25757,-0.13005,0.20155,0.25259,0.12509,0.12509,-0.078984,0.12508,0.40562,-0.43612,-0.53816,-0.56366,0.48219,0.60967,0.2781,0.15057,-0.078941,0.048555,-0.25749,-0.1555,-0.002467,-0.079021,-0.027993,0.40565,-0.15548,-0.56361,0.099521,0.48209,0.43115,0.12512,-0.12998,-0.23203,0.023054,-0.027931,-0.18097,-0.10448,0.023059,-0.1555,-0.079008,-0.10455,0.12507,0.048549,-0.10451,0.17606,0.48215,0.12509,-0.23201,-0.20652,-0.053464,0.40562,0.02301,0.048506,0.17605,0.20161,0.048585,-0.30853,-0.56357,-0.25751,0.2016,0.32908,0.38008,0.12505,-0.33406,0.048543,0.30358,0.45667,-0.15551,-0.64011,-0.30852,0.023065,0.20158,-0.027956,0.023041,-0.10447,0.4566,0.22708,-0.23201,-0.43606,-0.07899,0.099564,0.12506,-0.027987,0.048531,0.32912,0.15059,-0.33401,0.17612,0.099552,-0.18103,-0.30853,0.074062,-0.053488,0.12506,-0.10451,0.048549,-0.053482,-0.053451,-0.002461,0.023041,0.3291,-0.20653,-0.33407,-0.28305,0.023059,0.074062,0.27812,0.074033,-0.2065,0.12509,-0.053476,0.15056,0.074038,-0.13,0.048543,-0.15548,-0.027944,-0.053458,-0.20652,0.023047,0.20158,0.023017,0.09951,-0.028011,0.048561,-0.027962,0.22711,0.074069,-0.002418,-0.10449,0.15054,-0.30856,-0.20653,0.20159,0.27809,0.1487,0.1232,-0.027913,0.074106,0.099588,0.074057,-0.002443,-0.027956,0.048536,0.07402,0.048543,-0.079014,-0.23204,0.12507,0.22712,0.048543,-0.027956,0.023023,-0.10449,-0.181,0.048585,-0.00243,0.074087,0.17609,-0.15551,-0.15553,0.17604,-0.053488,0.17607,0.023029,-0.18097,-0.12997,0.1251,0.17611,-0.10449,0.22705,-0.002503,0.22707,-0.002479,0.22711,-0.053476,-0.41054,-0.15549,0.099588,0.023041,-0.1045,-0.002485,0.12505,0.099546,-0.079008,-0.23202,-0.2065,-0.027956,0.1506,0.30361,0.22706,-0.002472,-0.35957,-0.30858,0.22706,0.2271,0.20159,0.12509,0.12508,-0.027987,-0.028011,-0.028005,-0.027987,-0.079014,-0.002479,0.023059,-0.027969,0.074075,0.02309,-0.078959,-0.23202,-0.079002,0.099546,-0.027974,0.40563,0.22706,-0.18105,-0.232,-0.053415,0.12509,0.074057,-0.13,-0.002479,-0.002485,-0.13005,-0.002491,0.22711,0.074111,-0.053427,-0.23202,0.023041,0.099546,0.22705,-0.002479,-0.027969,-0.15547,-0.078941,-0.41054,-0.20651,0.12507,0.15057,0.17606,0.25257,-0.079008,-0.13001,0.099577,-0.10445,0.3036,0.2781,0.17611,-0.71665,-0.61465,0.20156,0.27811,0.12509,0.12506,0.15057,0.20156,-0.078959,-0.053446,-0.12999,-0.18104,-0.10447,-0.027993,-0.18101,-0.027962,0.023047,0.074093,0.27812,0.17606,0.048518,0.15054,0.023047,-0.1555,-0.053482,-0.10447,-0.12999,-0.078984,-0.027944,0.22707,-0.053519,-0.25756,-0.078966,0.17611,0.2271,0.15056,0.023035,-0.053495,-0.002412,-0.15548,0.12504,0.17607,-0.30856,-0.43612,0.074044,0.20161,0.45666,0.048585,-0.10447,0.023054,-0.002497,-0.25754,-0.0535,0.22707,-0.078953,0.35462,0.023035,-0.28302,-0.10444,-0.02795,-0.18101,-0.053513,0.12504,0.17607,0.023041,-0.18097,-0.078953,0.099588,-0.078972,-0.38508,-0.10454,0.17608,0.20158,-0.07899,-0.20652,0.074075,0.15057,0.17612,-0.33401,-0.41053,-0.0535,0.25254,0.15054,-0.053488,-0.002479,0.099552,0.048549,-0.10446,-0.10445,0.023059,0.07402,0.3036,-0.10454,-0.3851,-0.18101,0.12508,0.023065,0.38014,0.12509,0.1761,-0.07899,-0.23203,-0.15553,0.074033,-0.0535,-0.002467,0.099577,-0.10447,-0.053458,-0.002454,0.17606,0.12504,0.074008,0.048518,-0.053488,0.20157,0.25259,0.023041,-0.25748,-0.25752,0.074051,0.12507,-0.18098,0.20156,0.22708,0.1761,-0.13,-0.15549,-0.05347,-0.13,0.073989,0.09954,-0.12999,0.1251,0.15059,-0.05347,-0.1555,0.074044,0.048555,-0.002467,-0.002479,0.099503,-0.13002,-0.079002,-0.002467,0.15057,0.074051,0.17607,-0.12995,0.048567,0.048549,-0.02798,-0.12999,-0.053506,0.048525,0.38013,-0.027993,-0.20653,0.023035,-0.027944,0.048573,0.2526,0.25258,-0.1045,-0.43609,-0.23205,-0.078984,-0.027956,0.023041,0.17607,0.30358,0.12504,0.023029,-0.18101,-0.33403,0.023059,-0.181,0.22703,0.35465,-0.078966,0.15056,0.099583,0.074062,-0.027993,-0.23205,-0.002436,0.099595,0.048567,-0.053476,-0.15553,0.20159,-0.027962,-0.13001,-0.23203,0.023059,0.2271,-0.027969,0.20158,-0.053402,-0.053427,-0.13001,-0.027974,-0.027987,-0.027998,0.12503,-0.078972,-0.232,0.099588,0.2271,0.12505,0.22705,-0.10453,-0.181,0.099583,-0.13001,-0.078996,0.2271,0.04858,0.048567,0.023059,0.15056,0.15054,-0.18103,-0.05347,-0.25754,-0.002479,0.17607,0.25257,0.22707,0.048561,-0.027944,-0.053451,-0.30856,-0.13,0.25254,0.25258,0.099564,-0.078972,0.20161,0.15057,-0.28305,-0.4361,0.15057,0.25262,0.074069,-0.053464,-0.23204,-0.25751,-0.002467,0.15057,0.074038,0.099559,0.074038,-0.1045,-0.3851,-0.10449,0.22708,0.12506,0.023047,-0.15548,-0.002472,-0.10451,-0.23204,-0.079002,-0.053476,-0.053476,0.2526,0.074038,-0.10445,-0.12999,-0.15553,-0.10454,0.30363,0.074087,0.023059,-0.25751,-0.002461,-0.002436,-0.078972,-0.078947,-0.10449,-0.1045,-0.00251,0.023035,-0.002454,-0.12996,-0.078941,-0.2065,-0.078996,0.12505,0.12506,-0.13,-0.35954,0.048561,0.22704,0.17606,-0.23198,-0.078972,-0.18101,0.20158,0.07402,-0.13005,-0.078984,-0.053495,0.048561,-0.41058,0.099546,0.25259,0.099577,0.12507,0.35461,-0.13005,-0.28306,0.15058,0.09957,-0.078984,-0.053476,-0.053439,-0.078941,-0.002436,-0.002454,-0.028005,-0.079002,-0.002491,-0.02798,0.074038,-0.28306,-0.053482,0.27812,0.15059,0.048561,-0.20652,-0.002461,-0.15552,0.074057,0.2271,0.023047,-0.2065,-0.002443,0.20158,0.048512,0.099534,-0.079008,-0.23204,-0.20651,0.25256,0.15057,0.074087,-0.002412,-0.027938,-0.027956,-0.002448,0.023029,0.074033,-0.027998,-0.10449,-0.12998,-0.07899,0.20159,0.20158,-0.078996,-0.35956,-0.23204,0.2271,0.15058,0.099552,-0.027956,0.074075,0.074093,-0.35954,-0.13003,0.25257,0.12507,0.048543,0.27808,0.25256,-0.15552,-0.283,-0.12993,-0.12995,-0.13001,-0.10452,0.07402,0.048525,-0.002479,0.09957,-0.002436,-0.027956,-0.05347,0.048549,0.074038,-0.053464,-0.1555,-0.15551,0.12504,0.17609,0.023035,0.023047,-0.18097,-0.23201,-0.30858,0.17606,0.2781,0.023023,0.15057,0.074069,0.15056,-0.10445,-0.12994,-0.15548,-0.079002,-0.10452,0.023017,-0.027987,0.074044,0.17605,0.099559,-0.15547,-0.002436,-0.002467,-0.002491,-0.027998,-0.053513,0.09954,0.22708,-0.079008,-0.46161,-0.002467,0.12512,0.074087,0.048525,0.17607,-0.002491,-0.027987,0.099546,0.2271,-0.10447,-0.10447,-0.002418,0.074087,-0.027944,-0.05347,0.099546,0.22705,0.023035,-0.56356,-0.002461,0.12507,0.023054,0.048555,-0.12999,-0.078984,0.023047,0.25259,0.15054,-0.46159,-0.5381,0.20164,0.22713,0.12508,0.074038,0.099491,-0.002485,0.074038,-0.027969,-0.28302,-0.10447,0.023096,0.048585,-0.15546,-0.18101,-0.078984,0.074033,0.022986,-0.002472,0.048531,0.099577,-0.027931,-0.15548,-0.20653,0.074044,0.25257,0.023035,0.099546,-0.078972,-0.20649,-0.12995,0.12508,-0.18101,-0.25755,0.30359,0.22705,0.074013,-0.002491,0.17607,-0.078966,0.17607,0.15058,-0.027925,-0.12998,-0.18098,0.023047,0.15058,0.023029,-0.15553,0.048536,0.25261,-0.1555,0.12509,0.074081,0.15056,0.048531,-0.002479,0.074038,-0.002461,-0.35958,-0.18103,0.22714,0.20164,0.1251,-0.027969,0.099564,-0.079008,-0.20652,0.023054,0.17609,0.099583,0.048592,-0.002436,-0.078953,0.099552,0.099546,0.09954,0.074026,-0.002472,0.12507,0.048555,0.048549,-0.20652,-0.12998,0.12505,0.099546,0.023035,0.35458,0.25257,0.27812,-0.20648,-0.46153,-0.38503,0.15058,0.17606,0.074057,-0.053488,-0.15548,0.023047,-0.027969,-0.25755,-0.02798,-0.053482,0.12507,0.17608,0.20156,-0.1045,-0.13,-0.002448,0.099564,0.048525,0.12507,-0.002461,-0.13,-0.027987,-0.12996,-0.027962,-0.027962,0.074062,-0.002461,-0.027974,0.074038,0.074038,-0.2065,-0.053513,0.25258,0.099528,-0.1045,0.023065,0.074069,0.023041,-0.12996,0.074081,-0.10447,-0.079002,0.074033,-0.1045,-0.10452,0.22706,0.023054,-0.05347,0.048573,0.023059,0.023047,-0.10452,0.023023,0.12505,-0.053476,-0.10451,-0.18103,0.27814,-0.078959,-0.15547,-0.053451,0.099546,-0.079008,0.048536,-0.028005,0.17606,0.22708,0.09957,-0.12996,-0.28298,-0.1045,0.099534,0.17606,0.099546,-0.053464,0.048525,-0.10452,0.048573,-0.002418,0.023059,0.023041,-0.07899,-0.20653,-0.002454,-0.15552,0.15056,0.048536,0.12505,-0.002443,-0.078935,-0.053451,-0.053482,0.074008,0.15054,0.099559,-0.28304,-0.20653,0.048536,0.15061,0.22713,0.048555,-0.1045,0.099552,-0.002448,-0.10452,-0.079008,0.20158,0.074069,-0.10446,-0.18099,0.074051,0.023041,-0.23202,-0.15553,0.12504,0.12504,-0.002436,0.12507,-0.00243,0.048592,-0.15547,-0.15552,0.099515,0.07402,0.074044,-0.13001,-0.027969,-0.10449,-0.053464,-0.053476,0.12505,-0.027962,-0.002467,0.099564,-0.28308,-0.25755,0.048573,0.50765,0.17609,-0.10447,-0.10447,-0.02795,-0.078996,-0.13001,-0.053495,0.12506,0.023072,-0.078996,-0.41058,-0.23201,0.12508,0.30363,0.17607,0.074013,0.12504,0.074057,0.023047,-0.027969,-0.02795,-0.078959,-0.10448,-0.13,0.048531,0.023029,0.023035,-0.07899,0.023041,0.074057,0.12506,-0.027944,0.25263,0.048561,-0.64014,-0.28308,0.38013,0.20159,-0.002467,-0.02798,0.12508,-0.027938,-0.027956,-0.10451,-0.23204,0.12506,0.048536,-0.02798,-0.079008,-0.053464,0.12509,0.2781,0.099564,0.22708,-0.23202,-0.23202,-0.33405,0.023059,0.048561,0.023047,0.12505,0.099559,0.074057,-0.002472,-0.053476,0.02301,0.09954,-0.13002,-0.002479,-0.30852,0.1506,0.2271,-0.12998,-0.02795,0.048536,0.22705,0.023035,0.074026,-0.18101,-0.30854,-0.18098,0.12508,0.09957,-0.00243,-0.05347,-0.027993,0.074038,0.12507,0.048531,0.048512,0.023041,-0.15546,-0.002418,-0.078977,-0.13001,0.15054,0.074051,-0.078972,0.17605,-0.027987,-0.12997,-0.02792,0.2271,0.15054,-0.28307,-0.13001,-0.02798,0.12507,-0.002436,0.048567,0.09954,0.048561,-0.12995,-0.23203,-0.002461,-0.078972,-0.28306,0.074008,0.25259,0.048549,-0.12998,0.074062,0.074062,-0.12997,-0.18101,-0.002497,-0.078984,-0.053476,0.15056,0.074051,-0.41055,-0.10449,0.15059,-0.079002,0.17606,0.048549,-0.002491,0.048555,-0.002436,-0.10448,-0.027938,0.023054,-0.12998,-0.078996,-0.053476,0.17605,0.099521,0.023035,-0.078977,-0.078977,0.023054,0.048549,0.048567,-0.027956,-0.20651,-0.13,-0.02798,0.22707,0.17606,-0.10449,0.099577,-0.053433,0.099559,0.17602,-0.07899,-0.12999,-0.12998,-0.20652,0.099546,0.023059,0.048555,0.1761,-0.05347,-0.20652,-0.25757,0.023041,0.20155,0.023059,0.12509,0.09957,0.12507,-0.053476,-0.027969,-0.181,-0.12999,-0.078996,-0.027998,0.099546,0.074062,-0.23199,0.15053,-0.002467,-0.28303,0.023059,-0.002467,0.074062,0.12507,-0.053476,-0.15553,-0.15553,0.2271,0.1251,-0.23201,-0.30854,0.023047,0.20158,0.20153,-0.002467,-0.078984,0.07402,0.22707,-0.20648,-0.078935,-0.027944,-0.078996,-0.13001,0.22708,0.023041,-0.002472,0.048518,0.09957,-0.078947,0.048585,0.048531,-0.028011,-0.0535,-0.18105,0.099552,0.099534,-0.078935,-0.12993,-0.078953,-0.10449,0.099564,0.074044,0.022998,-0.28303,0.22708,0.25257,-0.15551,-0.23199,-0.078928,0.023054,0.17606,0.074038,-0.053495,-0.20656,0.12503,0.20158,-0.027944,-0.027913,-0.053421,-0.12999,0.12503,0.02301,-0.002479,-0.002479,-0.25753,-0.232,0.074081,0.023054,0.048549,0.15054,0.12505,0.12508,0.023035,-0.20653,-0.23203,0.17609,0.32912,-0.078996,-0.2065,-0.078972,0.099588,0.048561,-0.13001,-0.20654,0.15055,0.09954,-0.002454,-0.002443,0.023078,0.22709,-0.053464,-0.18101,-0.13001,0.048518,0.099559,0.023059,-0.12997,0.023047,0.023065,0.023054,0.048543,-0.079021,0.09954,0.074026,0.25257,0.17603,-0.18103,0.023054,0.023096,-0.053433,0.048549,-0.10452,-0.15552,0.15055,0.15056,-0.078966,-0.027969,-0.10447,-0.12995,-0.002436,0.023029,0.15052,0.22706,-0.002497,-0.13002,0.099588,-0.02792,-0.002454,-0.002461,0.048549,-0.181,-0.15553,0.22708,0.099564,-0.13002,-0.20654,0.048573,-0.053415,0.20158,0.17606,-0.1045,0.048543,0.048561,-0.053482,-0.25754,-0.28303,-0.053458,0.023078,0.17609,0.09957,0.15057,0.048536,-0.10453,-0.13002,-0.002485,0.074062,-0.10445,-0.15546,-0.25751,-0.027962,-0.002491,0.20156,0.023047,-0.002472,-0.002479,0.074026,0.074038,0.04858,0.099601,-0.002436,0.12505,-0.53815,-0.10452,-0.05347,0.25262,0.09957,0.023041,0.048555,-0.10447,-0.002443,-0.10447,-0.027969,-0.079026,-0.028029,-0.027969,0.17607,0.27807,0.099583,-0.078935,-0.15545,-0.18099,-0.053506,-0.10452,0.09954,0.17606,0.17607,0.048555,-0.18101,0.074087,0.12506,0.15057,0.099534,-0.28305,-0.05347,0.32912,0.17608,-0.13001,-0.2065,0.04858,0.099564,0.023029,-0.027993,0.09954,-0.18101,-0.13002,-0.1555,-0.002467,0.099588,0.15062,-0.002454,0.048531,0.023023,-0.053482,-0.027987,0.09954,-0.002467,-0.30853,-0.002454,0.27811,0.074062,0.048536,-0.20649,-0.027962,-0.027962,0.074013,0.25254,-0.002467,-0.12999,0.12512,0.17609,0.048561,-0.053476,-0.25753,-0.13004,0.074044,0.12507,0.12507,0.048531,0.048555,-0.002443,-0.053458,-0.23203,-0.002485,0.023023,0.22707,0.12508,-0.18101,-0.15548,0.048573,0.17608,0.22708,0.12504,-0.1045,0.023035,-0.078984,-0.23205,-0.002479,0.15062,0.048598,-0.078959,-0.027969,0.048531,0.048543,0.099534,-0.10453,-0.002491,0.099559,0.074087,-0.078941,-0.30852,0.048531,0.22706,0.20156,-0.027974,-0.20648,0.074075,-0.078977,0.09951,0.048549,0.15059,-0.13,-0.23203,-0.027962,-0.10449,-0.07899,-0.027956,0.17611,0.12508,-0.027969,-0.027962,0.048531,-0.002485,0.023041,-0.002491,0.048543,0.099528,-0.079002,-0.15551,-0.078917,-0.027925,0.20156,0.17604,-0.15551,-0.30854,0.023065,0.15059,-0.053476,-0.12999,0.048536,0.15057,0.15056,-0.002479,-0.23207,0.048536,0.09957,-0.078947,0.048592,0.023059,-0.002491,-0.027993,0.074051,-0.18098,-0.002461,0.074038,-0.078977,0.12504,0.35458,0.074038,-0.002418,0.074087,-0.05347,-0.48709,-0.07899,0.3291,0.2526,-0.05347,-0.20652,-0.078972,0.048561,0.2016,0.27808,-0.002491,0.023047,-0.18101,-0.28305,-0.027969,0.074062,-0.027944,0.023047,0.023035,0.099528,0.048536,-0.002461,-0.027987,-0.078972,-0.078972,0.09957,0.023065,-0.053482,0.048555,0.048567,-0.30854,-0.4616,0.15056,0.27811,0.12509,0.25259,-0.002479,-0.23198,-0.002448,0.15054,-0.1045,-0.18101,0.17607,-0.18099,-0.20653,0.09954,0.09957,-0.053433,-0.027969,-0.02798,0.074051,0.17604,0.048531,-0.053458,-0.027956,0.15056,0.074062,-0.18099,-0.283,0.048536,-0.002503,0.09951,0.3036,0.12507,0.048555,-0.053427,-0.20648,-0.10447,-0.10449,-0.028011,-0.002479,0.099564,-0.002479,0.048543,-0.1045,-0.15548,0.023078,0.023078,-0.002443,0.074038,0.048525,0.023017,-0.078984,-0.20649,0.17606,-0.13,-0.232,-0.002443,0.099559,0.15058,0.27808,-0.13002,-0.027993,0.20159,0.12506,0.20158,0.023054,-0.10445,-0.027931,-0.15548,-0.12999,-0.079014,-0.079033,-0.053506,0.12508,0.20159,0.099564,0.048585,0.023072,-0.053464,-0.12999,-0.1045,-0.15554,0.12504,0.12507,-0.027944,-0.002448,-0.10448,-0.053476,-0.002461,0.074038,-0.002491,-0.18103,-0.002461,-0.078966,-0.053458,-0.053451,0.023047,0.023035,0.17607,-0.15552,-0.33407,-0.027998,0.023059,0.12507,0.048555,0.099583,0.023059,0.099564,0.023047,-0.25754,-0.079008,0.074044,0.17604,0.17607,0.12508,-0.053439,-0.18097,-0.25751,0.048518,0.22707,-0.027969,-0.02798,0.023035,0.074057,-0.078953,-0.002454,-0.10448,-0.002461,-0.002485,0.3036,0.02301,-0.10451,-0.13002,0.1761,0.12509,0.1251,-0.23201,-0.10449,0.074081,0.023047,0.048531,-0.027969,-0.13001,-0.1555,0.074062,0.12508,-0.10449,-0.20655,0.099546,0.17609,0.20157,-0.027969,-0.053458,-0.1045,0.048536,0.09957,-0.002443,-0.18097,0.023054,-0.07899,-0.2065,-0.053495,0.048512,0.048531,0.099552,-0.002454,-0.15546,-0.027956,0.22708,0.074044,0.12507,-0.1045,-0.20652,-0.10449,0.048567,-0.027974,0.074069,0.023041,-0.13002,0.048543,0.25262,0.15054,-0.38509,-0.53812,0.023072,0.38014,0.17609,-0.002436,-0.002472,0.048512,-0.10449,-0.12999,-0.18101,-0.07899,-0.053446,0.27807,0.17607,-0.027956,-0.15548,-0.15549,-0.079002,0.048543,0.023047,-0.078959,-0.079002,0.099552,0.27811,0.25262,-0.25755,-0.58916,0.17607,0.32911,0.20157,-0.05347,-0.12997,-0.12998,-0.027938,-0.027969,0.15056,-0.027998,-0.20655,-0.20653,0.099564,-0.027974,-0.078966,-0.002448,0.12508,0.20158,0.023029,-0.002461,0.023029,0.074038,0.048536,-0.078966,-0.15547,-0.07899,0.074062,0.048536,0.074057,-0.15549,0.20155,0.048536,-0.079021,-0.18102,0.074051,0.023059,-0.18099,-0.12995,0.3036,0.15055,-0.2065,-0.002461,-0.10449,0.048567,0.023029,-0.13002,-0.15551,0.1761,0.099583,-0.05347,-0.13002,-0.0535,0.20156,0.048549,0.074044,-0.18096,-0.12994,-0.027962,0.07402,0.20153,-0.02798,0.074038,0.048543,-0.15548,-0.15549,-0.05347,0.074075,-0.13001,0.023054,0.15054,0.074033,0.023029,0.099528,0.023054,-0.10449,-0.15549,0.023072,-0.002443,-0.002472,-0.10449,-0.02798,0.099577,-0.05347,0.099559,-0.18101,-0.23204,0.074062,0.12507,0.048543,0.15051,0.023017,-0.079014,-0.25755,-0.18101,-0.027956,-0.002461,-0.15548,0.048561,0.074062,0.048518,0.15054,0.20155,0.15054,-0.02798,-0.28302,0.048585,-0.078941,-0.078935,-0.10447,-0.12999,0.048549,-0.1045,-0.25752,-0.23204,0.074062,-0.002467,0.17609,0.17607,-0.30857,0.048512,0.17608,0.074051,-0.10449,-0.078953,0.023078,-0.10448,-0.181,-0.13001,0.074051,-0.027969,-0.053482,0.12504,0.07402,0.07402,0.2781,0.023041,-0.41055,-0.23197,-0.078935,0.30358,0.27805,-0.027969,-0.10448,0.048555,-0.002467,-0.053458,-0.027956,-0.053482,-0.10453,0.074033,0.15056,0.12504,0.048549,0.023059,0.04858,-0.12998,-0.30852,-0.18103,-0.053482,0.3036,0.12505,-0.10452,-0.10451,-0.002461,0.048549,0.048561,-0.027944,-0.38505,0.048567,0.074044,0.099546,0.12505,0.099528,-0.002485,-0.078977,-0.078941,0.15061,0.099534,-0.35958,-0.12998,-0.00243,0.048543,0.048531,0.22707,0.22708,-0.078972,-0.23199,-0.2065,0.074038,0.074038,-0.12999,0.074026,0.048512,0.023035,-0.053458,-0.002436,-0.002423,0.048561,-0.1045,0.20155,0.22705,-0.10453,-0.23203,-0.078977,0.15059,-0.05347,0.074069,0.22712,0.023059,-0.053476,-0.02798,0.022998,-0.10452,-0.02798,-0.002454,-0.002443,-0.002443,0.023035,0.023023,-0.0535,-0.078996,-0.027969,0.048543,-0.053458,0.023059,0.048561,-0.10447,0.048567,0.048573,-0.1045,-0.079008,0.12501,0.15054,-0.002491,-0.15551,0.15059,-0.15548,-0.25753,-0.002436,0.4056,0.15054,0.048561,-0.078953,-0.30854,-0.28308,0.023041,0.25262,0.074075,-0.027974,-0.15553,0.074038,-0.027969,-0.002461,0.023029,-0.027974,-0.10448,0.048567,-0.027944,-0.002461,0.15052,-0.002503,0.023029,-0.053458,-0.078966,-0.25753,0.12509,0.25263,0.048549,-0.18104,-0.002467,0.074075,0.023041,-0.13004,-0.028005,0.2016,0.023065,-0.002461,-0.10447,-0.002461,0.074044,0.048536,-0.25756,0.099534,0.12508,-0.078966,-0.078959,0.023054,0.074087,0.023029,0.099521,0.09954,-0.10449,-0.078977,-0.15546,-0.23197,0.15057,0.30357,0.023047,-0.002461,0.048536,-0.027974,0.09954,-0.078984,-0.46159,0.023029,0.25259,0.43115,0.32912,0.023023,-0.053519,-0.002448,-0.027962,-0.2065,-0.2065,-0.002461,-0.027956,-0.027962,-0.078977,0.12505,0.074038,0.023023,0.048525,0.074038,0.023023,-0.002461,-0.002412,0.023084,-0.20648,0.099546,0.074051,0.048549,-0.20654,-0.10452,0.048543,0.1506,0.15057,-0.05347,0.17607,0.023054,0.023041,-0.002485,0.023047,-0.25753,-0.28305,0.09954,0.1251,-0.053427,-0.2065,0.40557,0.12507,-0.053458,-0.15551,-0.23204,-0.002448,-0.027944,-0.10449,0.023065,0.074087,0.22705,-0.002503,-0.15552,-0.10449,0.023047,-0.027969,-0.002485,0.17609,0.023078,-0.078972,0.023041,0.074044,-0.1045,-0.10452,0.074051,0.12508,-0.002448,-0.1555,0.04858,-0.078953,0.023041,0.15054,0.099515,-0.002461,-0.027962,-0.15549,0.074038,0.023035,0.023065,-0.078959,-0.35953,0.12505,0.15054,0.15056,0.023035,0.048555,-0.078947,-0.05347,-0.002467,-0.027993,-0.002497,-0.027993,-0.078959,-0.078977,-0.027962,0.074069,-0.23197,0.048536,0.074044,-0.12997,0.023054,0.048518,0.15055,0.12504,-0.002461,0.023059,0.048585,-0.33404,-0.43609,0.099559,0.17609,0.074075,0.023059,-0.13,-0.13001,-0.078996,0.074033,0.17609,0.023065,0.023054,-0.07899,-0.078996,-0.078984,0.15055,-0.18103,-0.078977,-0.078966,0.023054,0.074075,-0.002448,-0.02795,-0.002485,-0.053506,0.048518,0.17607,-0.002454,-0.053495,0.20158,-0.23199,-0.10448,0.2016,0.20158,-0.07899,-0.30852,0.17604,0.048536,-0.18102,-0.027962,0.1506,0.048555,-0.15548,-0.053495,0.023029,0.048512,-0.027987,-0.027974,0.12507,0.023059,-0.078941,-0.10446,-0.027969,-0.053488,-0.028005,-0.18103,-0.027993,-0.027987,0.074038,0.12509,0.074081,-0.10444,-0.053451,-0.20654,-0.20652,-0.027993,0.048518,0.048525,0.074087,0.12509,0.048585,-0.02795,-0.053482,0.048536,0.048543,-0.053495,-0.20656,0.22706,0.22712,-0.25752,-0.35952,0.023084,-0.027962,0.20158,0.074026,0.099521,-0.027993,-0.20649,0.074062,0.12506,-0.027944,-0.12996,-0.12998,-0.07899,-0.027987,0.048525,0.023035,0.023029,0.12509,-0.027962,-0.053451,0.048561,0.099564,-0.002461,-0.027998,0.048518,0.023035,-0.002436,-0.053451,-0.078984,0.074062,-0.078966,-0.15551,0.023023,0.20156,-0.027969,-0.07899,-0.13,-0.23202,0.20161,0.17607,0.15057,-0.002454,-0.10449,-0.10451,-0.053488,-0.002461,-0.10447,-0.13001,0.048531,0.27811,-0.002461,-0.027993,-0.079002,0.09957,0.074069,-0.053446,-0.053476,0.074033,-0.10445,0.048567,0.32906,-0.027998,-0.181,-0.10449,-0.05347,0.048536,0.023047,0.023035,0.048531,0.17611,-0.053446,-0.30855,-0.13001,0.17609,0.023029,-0.13002,0.20156,0.099577,0.023065,-0.2065,-0.053451,0.099546,0.074038,-0.078984,-0.053476,-0.002491,0.15054,0.074038,0.048567,-0.18096,-0.078972,0.048536,0.074038,0.15058,-0.1045,-0.28306,0.074026,0.30361,0.074093,-0.053439,-0.10448,0.17607,-0.002485,-0.002479,0.17604,0.048549,-0.053451,-0.18097,0.12507,0.09954,-0.28303,0.023047,-0.002479,0.27811,-0.002461,-0.079008,-0.02798,-0.027974,0.099564,0.074075,0.099564,-0.10452,-0.027998,-0.15549,-0.053451,-0.027962,0.15058,0.12506,-0.002467,-0.078984,0.048555,0.15057,0.048536,0.048543,-0.07899,-0.002497,0.048525,-0.027962,-0.10445,-0.15547,-0.02795,0.048536,0.15054,0.048531,0.074033,0.20158,-0.027956,-0.30852,-0.13,0.30363,0.048549,-0.12999,0.12505,0.12508,0.048549,-0.1555,-0.30855,0.048543,0.099564,0.074081,0.074062,-0.027993,0.048543,-0.078959,0.22704,-0.028018,-0.20649,0.023059,0.023072,0.048561,-0.053464,-0.20651,0.074033,0.17606,0.17605,-0.1045,-0.053464,0.023035,-0.027969,0.023072,0.048585,-0.027969,-0.053488,-0.07899,0.023023,0.074033,0.074026,0.12507,0.12508,0.074081,-0.28302,-0.13002,0.04858,0.074057,-0.13003,-0.28306,0.25259,0.17606,0.048555,0.023078,-0.027931,-0.002472,0.12503,-0.053513,-0.13,-0.181,-0.053476,0.023047,0.023054,0.023059,-0.05347,-0.002479,0.074013,0.20156,0.09954,-0.02798,-0.002454,-0.078947,-0.002448,-0.078947,0.17607,0.074013,-0.15552,-0.12999,0.048536,0.09954,-0.079021,0.15055,0.3291,0.1251,0.048592,-0.002443,-0.25753,-0.23202,-0.078959,0.048536,0.09954,-0.002472,-0.13002,-0.2065,0.15059,0.023029,-0.15553,0.099534,0.22709,0.15055,0.048567,-0.027962,-0.053458,-0.078959,-0.053439,-0.027974,-0.002485,-0.13003,-0.079008,-0.10452,0.074038,0.099595,0.1251,0.099583,0.099564,-0.0535,-0.20656,-0.00243,0.023047,-0.05347,-0.027974,-0.053451,0.023047,0.15058,-0.15546,0.07402,0.20152,0.074038,-0.181,-0.13,-0.053476,0.17607,-0.002448,-0.10444,-0.38505,-0.12999,0.048567,0.074051,0.099552,0.074051,-0.053476,-0.027987,0.099552,0.074069,0.023059,-0.078972,-0.078996,0.048512,-0.002467,-0.12998,-0.002461,0.048543,-0.002461,-0.12998,-0.002448,0.12507,0.074051,0.099552,-0.07899,-0.002479,0.12506,0.048536,-0.027969,-0.232,-0.078972,0.12504,0.17606,0.12507,0.17606,-0.027969,-0.2065,-0.2065,-0.10449,0.099577,0.17609,-0.027969,0.048543,0.074026,0.15054,-0.027993,-0.027987,-0.078966,-0.18098,0.2016,0.15059,-0.10447,-0.1555,-0.07899,0.099546,0.048543,0.023047,0.048549,0.023029,-0.027969,-0.027944,-0.053451,-0.53811,-0.002467,0.12506,0.02301,-0.078996,0.12507,0.22708,0.22708,0.09957,-0.10449,-0.1045,-0.20649,-0.10449,-0.10452,-0.078977,-0.18101,-0.027956,0.2016,0.15059,0.048536,-0.027987,0.074038,0.048536,-0.12998,-0.078977,0.099564,0.12506,-0.027969,-0.12999,0.048531,-0.053482,0.15055,0.17606,-0.002461,-0.12997,0.074057,0.023059,-0.02795,-0.027956,-0.053488,-0.027987,-0.027998,0.074038,0.15054,0.12505,-0.027993,0.22708,0.074075,-0.12996,-0.078977,0.023023,0.023029,-0.13,-0.027969,0.074057,0.074062,-0.027962,0.04858,0.27812,-0.079014,-0.53816,-0.10452,0.30361,0.023041,0.12509,0.17607,0.074062,-0.053427,-0.053446,-0.12998,-0.15551,-0.079002,-0.053513,-0.053495,0.023041,-0.078972,0.074033,0.15057,-0.053451,0.074057,-0.20652,0.023029,0.12503,0.099552,0.20159,-0.027944
0.12502,0.17606,-0.027944,-0.078953,-0.078947,-0.12996,0.074038,0.074026,0.17606,0.074033,-0.002491,0.048567,-0.05347,-0.18099,-0.002418,-0.12996,-0.053464,-0.078996,0.22702,0.32905,0.074033,-0.078972,-0.18098,-0.10446,-0.15543,-0.10445,-0.18097,0.20152,0.30356,-0.002479,-0.079002,-0.02798,-0.15549,-0.078959,-0.10444,-0.05347,0.20155,0.12504,-0.078977,0.023029,-0.15549,-0.027944,-0.002448,0.023035,-0.002436,-0.12998,-0.053482,0.048531,0.048543,-0.053476,-0.002485,0.048536,0.099564,-0.002454,-0.027969,0.023047,0.048543,-0.078972,0.048573,-0.10448,-0.15548,-0.002503,0.07402,0.023041,-0.10447,0.1506,0.023054,-0.078996,-0.38508,0.12504,0.20158,0.15062,-0.002436,-0.23205,0.074062,-0.10445,0.074044,-0.15554,0.048512,0.15051,-0.2065,-0.23199,0.40569,0.074118,0.15059,-0.33407,0.048469,-0.43604,0.048518,-0.12995,0.35461,0.12509,-0.30858,-0.20652,0.074087,-0.12997,0.073984,0.25262,-0.078928,0.07402,-0.15555,0.30364,0.20164,-1.1758,-1.635,-0.027974,1.2984,0.81381,0.35473,-0.23198,0.2781,-0.51261,-1.1503,-0.002479,1.1454,0.63518,0.27805,-0.079008,-0.48706,-0.28303,-0.43607,-0.43605,-0.15538,0.15056,0.43107,0.43107,0.27812,-0.15551,-0.38504,0.023047,0.17607,0.048518,0.2526,-0.002472,0.048598,-0.35946,-0.334,-0.12999,-0.10452,-0.25756,0.43108,0.38008,0.074033,-0.02798,-0.078966,-0.12996,0.22708,-0.002503,-0.002491,-0.15552,0.43116,0.27815,-0.28303,-0.027931,0.12514,-0.35954,-0.56364,0.099521,0.38011,0.12505,0.22705,0.32905,0.2271,-0.053402,-0.69112,-0.48705,0.15049,0.12507,-0.053464,-0.053439,0.023084,-0.15549,0.099534,-0.1045,0.60968,0.074075,-0.2065,-0.10447,-0.15548,-0.13,0.023005,0.0485,0.07402,-0.027956,-0.28296,-0.027931,-0.20652,-0.35957,-0.053495,-0.13005,0.12501,0.53321,0.074111,-0.71662,-0.30853,0.4312,0.099583,0.09954,0.20158,0.15054,-0.18105,0.38006,-0.18103,-0.51254,-0.53806,-0.002418,0.27812,0.17607,-0.12999,-0.13002,0.30358,0.099546,-0.18101,0.048555,0.048567,-0.15547,0.32909,-0.20649,-0.2065,-0.028042,0.048469,-0.002443,-0.18097,-0.30851,-0.053458,0.25261,0.17613,0.20154,0.25257,-0.053488,-0.15556,-0.53811,-0.53812,0.30365,0.4312,-0.027895,-0.053451,-0.13,0.074013,0.09954,0.023005,-0.28308,-0.10449,0.45669,-0.18094,-0.6401,-0.25755,0.50763,0.20157,-0.20649,0.25261,0.15054,-0.35959,-0.61464,0.40568,0.17614,0.30363,0.074038,0.023047,-0.30853,-0.053476,0.22702,-0.053525,-0.053495,0.048598,-0.33397,-0.38504,-0.1045,-0.02798,0.17604,-0.028036,0.17609,0.20161,0.22709,0.66068,0.074087,-0.46154,-0.33399,-0.027993,0.023029,-0.20653,-0.079033,0.27809,0.20164,-0.23198,-0.18098,0.20162,-0.053488,-0.18102,0.022998,0.22704,0.15057,0.15059,-0.027974,0.12508,-0.12998,-0.23205,-0.18102,0.099601,0.023047,0.30362,0.099552,-0.46162,-0.43607,-0.15548,0.30366,0.27813,-0.053525,0.20158,-0.002443,0.074051,0.12501,-0.25757,-0.25753,0.20165,-0.2575,0.048531,0.25257,-0.10449,-0.20653,-0.30849,-0.053476,-0.002461,0.53317,0.17608,0.099515,-0.053433,0.074062,-0.33405,-0.18101,0.15056,0.17606,0.3291,-0.15551,-0.283,-0.18098,0.023047,0.074038,-0.15551,0.074062,0.099564,-0.028018,-0.028018,0.25259,-0.078947,-0.23193,-0.28303,-0.002516,0.12503,0.17611,-0.078953,0.099559,0.17607,-0.46153,-0.23199,0.45661,0.25252,-0.10452,-0.1045,0.27812,-0.41055,-0.51257,0.12508,0.53317,0.048567,0.1251,-0.027969,-0.25757,-0.28307,0.048598,0.023041,0.099515,-0.027987,-0.10445,-0.20648,0.023078,0.15058,-0.33406,0.048525,-0.002491,-0.20658,0.023017,0.48211,0.099534,0.15058,-0.053421,-0.51254,-0.30849,0.074057,-0.23204,-0.28309,0.3291,0.3801,0.15057,-0.027931,-0.053439,-0.053446,0.074033,-0.002467,-0.41059,-0.18106,-0.23207,0.2271,0.0741,0.099613,-0.027944,0.12506,0.074026,0.20158,-0.28305,-0.25753,-0.078959,0.12503,0.074038,0.25265,-0.053446,-0.23202,-0.1045,0.3291,0.12502,0.40561,-0.027944,-0.66558,-0.56355,0.023114,0.023084,0.22706,0.12502,0.22704,0.074002,0.20152,0.099588,-0.69108,-0.283,-0.027925,0.074081,-0.12997,0.35461,0.60963,-0.33411,-0.51263,-0.078996,0.22715,-0.053433,-0.23199,0.27811,0.17607,0.048518,-0.002443,0.074044,0.099534,0.20152,0.17605,0.074069,-0.15546,-0.15545,-0.58908,-0.2065,-0.053476,0.2016,0.20157,0.17602,0.09951,0.20156,-0.12998,-0.20649,0.099613,-0.35954,-0.079021,0.12502,0.17609,0.35463,-0.10449,-0.15548,-0.18097,0.27813,0.023041,-0.28302,-0.33404,0.27805,0.38005,0.32909,0.074087,-0.078917,-0.10447,0.099521,-0.053519,-0.35954,-0.12994,-0.15548,-0.23205,0.25258,0.45666,0.20153,-0.053495,-0.053439,-0.12996,-0.079014,0.074013,0.20155,0.17608,-0.23202,-0.20649,-0.1555,0.023059,0.20159,0.15057,0.074026,-0.15553,-0.33406,-0.027974,0.27809,0.023035,-0.002436,-0.02795,-0.027944,0.15058,0.25257,-0.15551,-0.23203,-0.027956,0.048561,-0.078972,0.048555,0.40565,0.40559,-0.35959,-0.15551,0.023096,-0.43603,-0.30857,0.40563,0.099583,0.02309,-0.002436,0.17609,-0.027993,-0.13002,-0.30858,0.15057,-0.028005,-0.079002,0.17609,0.40567,-0.23197,-0.28303,-0.13005,-0.027969,-0.002443,0.048543,0.25257,0.099577,-0.027907,-0.35953,-0.10449,-0.002467,0.17604,0.023005,-0.079014,-0.10452,-0.078966,0.023054,0.023065,-0.23203,-0.12999,-0.18097,0.38011,0.32905,0.099552,-0.10448,-0.079008,0.15059,-0.13002,-0.28302,-0.053439,0.09957,0.074087,-0.181,-0.35956,-0.20656,0.15052,0.38011,0.32912,-0.181,0.27815,-0.002443,0.048549,0.074062,-0.64012,-0.43609,0.22708,0.40562,0.30362,0.15057,0.17609,-0.43606,-0.46157,-0.6656,0.023054,0.27808,0.3546,0.45666,0.074062,-0.002467,-0.2065,0.27808,0.25256,-0.30852,0.12504,0.023017,-0.053464,-0.28301,-0.05347,-0.28301,0.074062,0.12507,0.17608,-0.079008,-0.053513,0.17607,-0.15551,-0.15549,-0.002479,0.22712,0.5332,0.17607,-0.48711,-0.46161,-0.46162,0.38011,0.22711,0.1251,0.048561,0.25265,0.099601,-0.18104,0.15049,0.048543,-0.25751,-0.38505,-0.12998,0.099595,0.023047,-0.41054,0.12503,0.53318,0.22711,-0.53809,-0.25753,0.40561,0.4311,0.15057,-0.10449,-0.20655,-0.12997,0.074124,-0.053464,-0.41054,-0.18101,0.22708,0.12503,-0.053525,0.074062,-0.181,0.048567,0.15062,0.15059,-0.38505,0.09951,0.20153,0.17608,0.38017,-0.35954,-0.48706,-0.38505,0.17614,0.12509,-0.079026,0.22706,0.12505,0.048536,0.15056,-0.18101,-0.23201,0.048573,0.40566,-0.12994,-0.56367,-0.10455,0.048518,0.35467,-0.002412,0.048567,-0.18101,-0.053421,-0.053446,0.048536,-0.002516,0.17604,0.3291,0.099552,-0.05347,-0.35956,-0.10447,-0.002443,-0.002454,0.45667,0.20158,-0.30856,-0.38508,0.074057,0.38012,0.15062,-0.81866,-0.69112,0.40569,0.38013,0.3801,0.27805,0.22705,-0.10449,-0.35955,-0.33404,-0.027956,0.099583,-0.3595,-0.002443,0.125,0.099546,0.099595,-0.027969,-0.10451,-0.027993,0.15057,-0.078947,-0.12997,0.099583,-0.053433,-0.23203,0.074026,0.15054,0.17603,-0.053488,-0.38508,-0.002418,0.15062,-0.053451,0.3036,0.17604,0.17604,-0.002491,-0.20653,-0.027962,-0.053451,-0.20645,-0.3085,0.20155,0.38005,0.45658,-0.13001,-0.51257,-0.38503,-0.18098,0.04858,0.30362,0.099619,0.099577,0.32904,0.38006,0.048506,-0.30855,-0.46158,0.20159,0.27813,-0.12995,-0.2575,-0.10447,-0.23202,-0.053488,0.15053,0.30358,0.099564,-0.027956,-0.18098,-0.078947,0.15063,-0.25753,-0.38508,0.12504,0.50759,0.43108,0.074069,0.099601,-0.30855,-0.41055,-0.35954,0.30363,0.15059,0.22712,0.30358,-0.027974,-0.13,-0.35956,-0.1045,0.12505,0.1251,-0.25752,-0.053476,0.048506,-0.002454,0.17604,0.17604,0.27812,-0.35951,-0.35952,-0.28298,-0.027944,0.17608,0.15054,-0.1045,0.023029,-0.053464,-0.35957,0.074033,0.32911,0.35464,0.12509,-0.002454,-0.18101,-0.46159,-0.078996,-0.079002,0.3036,0.27812,0.048598,-0.56359,-0.35954,-0.027944,-0.027969,-0.053495,0.20153,0.58414,0.22711,-0.53807,-0.48707,0.12509,0.074087,0.20158,0.099546,-0.15552,0.20153,0.023029,-0.027974,0.048494,-0.053433,-0.35948,0.1251,0.099546,0.048549,0.048549,-0.079008,-0.002479,0.30362,-0.20652,-0.25752,-0.15546,0.15056,0.40556,0.22708,0.3801,-0.30853,-0.61457,-0.25746,0.1251,0.023103,0.32915,-0.13005,0.176,0.25256,0.20156,0.074062,-0.12998,-0.23202,-0.079008,0.22712,-0.15547,-0.15548,-0.20649,0.022992,0.099521,0.023047,0.2271,0.3036,0.023035,0.074062,0.099613,-0.28302,-0.51262,0.048536,0.12503,0.073989,0.38012,0.17611,0.048573,-0.053409,-0.053451,-0.053544,-0.078996,-0.002467,-0.053495,0.15056,0.20159,-0.28302,-0.20654,0.048543,0.023072,0.2271,0.099534,0.074026,0.023059,-0.053464,0.048555,0.12507,-0.13001,-0.38503,-0.002423,0.048549,-0.15554,0.12505,0.099577,0.074087,-0.12999,0.12504,0.38006,0.35462,0.12514,-0.23202,-0.33407,0.074038,0.074062,-0.181,-0.002485,-0.25755,-0.053464,0.22713,0.15064,0.32911,0.17609,-0.18103,-0.48715,0.048487,0.20157,-0.002467,0.15059,0.22712,0.17609,0.12508,0.048536,-0.43609,-0.18105,0.023047,-0.12996,-0.027969,0.1761,0.17611,0.048567,0.17611,-0.053513,-0.10451,0.023041,-0.3851,-0.20652,-0.15554,0.53319,0.66067,0.22714,-0.027944,-0.23203,-0.43605,-0.1555,-0.053482,0.27808,0.048549,0.15055,0.023029,-0.13,-0.078996,-0.078984,0.023059,0.32911,0.22707,0.023029,0.02309,-0.43607,-0.46159,0.17612,0.20163,-0.38509,-0.23205,0.58415,0.22705,-0.053519,0.099546,0.12512,-0.078959,-0.46152,-0.30847,-0.053446,0.099552,0.27804,0.15051,0.07402,0.074057,0.074069,-0.2575,-0.28297,0.43113,0.048487,0.022986,0.074026,0.27812,-0.33401,-0.48705,0.023059,0.048543,0.20161,0.15058,0.074033,0.074044,0.074008,-0.18101,-0.027969,-0.15551,0.099564,-0.15549,-0.027925,0.15058,0.15055,0.12505,-0.02798,-0.30855,-0.181,0.023072,-0.027956,-0.10447,0.22709,0.20158,0.074044,0.25258,-0.002467,-0.43608,-0.5381,-0.2065,0.2016,0.22711,0.04858,0.22708,0.074033,-0.05347,-0.25755,-0.25756,-0.15552,0.25262,-0.002423,-0.33404,0.15058,0.12507,0.20158,-0.02795,0.17607,-0.15553,-0.13006,-0.10455,-0.002436,0.099626,0.1506,-0.027944,-0.053488,-0.002491,-0.028018,0.12507,0.12507,0.15057,-0.053458,-0.12999,-0.23201,0.023059,-0.15551,0.074038,0.25256,0.099552,-0.181,-0.283,0.074069,-0.078953,0.099577,0.32913,-0.002516,-0.23204,0.023023,0.12502,-0.027969,0.099583,0.12505,0.074075,-0.10447,-0.28303,-0.02795,0.048561,0.09954,-0.053495,-0.56363,-0.18101,0.099564,0.53319,0.35463,0.048549,0.15056,0.023029,0.023017,-0.15554,-0.053458,-0.38503,-0.35953,-0.00243,0.02309,-0.027944,-0.05347,0.43105,0.81361,0.15055,-0.48705,-0.41051,-0.20647,0.074081,0.04858,0.12507,0.25257,-0.10452,-0.33405,0.048536,0.22707,0.09957,0.30354,-0.027969,-0.15544,-0.43604,-0.027969,0.12509,0.074057,-0.10452,0.023017,0.27808,-0.002467,-0.053458,0.099595,-0.12997,-0.002485,-0.002472,-0.002472,-0.18101,-0.15554,0.074044,-0.027987,0.048555,0.17612,-0.053409,-0.078966,-0.15551,-0.20653,0.074038,-0.027969,-0.053482,0.023072,0.20161,0.35463,0.38008,0.12499,-0.25754,-0.69112,-0.3086,0.17604,0.53325,0.048641,0.074087,-0.15547,0.12507,0.12504,0.12502,0.15053,-0.15554,-0.10452,0.023035,0.04858,-0.02795,-0.002454,-0.053451,-0.027974,0.048512,-0.027969,-0.30852,0.074044,0.32912,-0.28301,-0.15548,-0.002443,0.35461,0.15057,0.22707,0.074038,-0.13002,-0.38505,0.38013,-0.002479,-0.35956,0.048592,-0.10446,-0.18101,-0.10444,0.25255,0.099521,0.023041,-0.02792,0.048567,0.074057,-0.25752,0.023029,-0.13005,0.099546,0.22709,-0.027962,-0.002485,-0.027969,-0.027938,0.099521,-0.053506,-0.12994,-0.053421,-0.33401,-0.10449,-0.027987,0.12505,0.15059,-0.053495,-0.1045,-0.002454,0.25262,0.38008,0.074026,-0.02798,-0.002467,-0.078996,-0.027974,0.04858,-0.10445,-0.12997,-0.12995,-0.283,-0.10454,0.17603,0.22708,0.023059,0.2526,0.30359,-0.028011,0.023041,0.30361,0.023054,-0.38505,-0.58911,-0.053476,0.30364,-0.053464,-0.053488,0.02301,0.32913,-0.10445,-0.027962,-0.053495,0.02301,0.099534,-0.079033,0.099503,0.35457,0.45663,-0.053446,-0.33396,-0.33395,-0.30846,-0.15548,-0.20653,-0.002485,-0.51263,-0.053537,0.68616,0.27813,0.074044,0.35458,0.17604,-0.078996,0.023096,-0.15549,-0.027969,-0.23199,-0.002405,-0.28302,-0.28306,-0.10452,0.099588,0.20158,0.20155,0.17607,0.048567,0.023035,0.15056,0.27813,-0.23202,-0.33409,-0.10449,-0.18099,-0.18098,0.20158,0.20159,0.099559,-0.13,0.20159,0.09957,-0.10447,-0.15551,-0.002461,-0.002485,-0.079021,0.20154,0.17605,-0.002461,-0.12995,-0.15545,-0.002479,-0.10449,-0.027944,0.023029,0.25257,0.27805,-0.053495,-0.12999,-0.053446,-0.00243,-0.078977,-0.18102,0.099564,-0.35957,-0.053482,0.43115,0.35459,-0.15548,-0.027956,0.27809,0.15056,-0.15548,-0.41057,-0.18104,-0.078996,0.22708,0.17609,-0.078935,-0.10442,-0.18097,-0.079002,0.17602,0.22704,0.048525,0.048543,-0.181,0.074069,0.099601,-0.35951,-0.20647,0.40563,-0.13004,-0.28309,0.2271,0.048567,0.074062,0.3291,0.25259,-0.02795,-0.20648,-0.15553,-0.41058,-0.13004,0.35458,0.099564,-0.05347,-0.053433,-0.027956,0.099613,-0.027944,-0.20653,0.17603,0.20154,0.17604,-0.027969,-0.41054,0.12509,0.048543,0.074062,-0.181,-0.23204,-0.13002,0.3546,0.15054,0.27811,0.074087,-0.053476,-0.25752,-0.33401,0.15054,0.25258,-0.12997,-0.232,-0.15551,0.048506,-0.002491,0.38011,0.099588,-0.18097,-0.10445,-0.002485,0.15053,0.12505,0.02301,-0.13,-0.30849,-0.078892,0.40566,0.022986,-0.33408,-0.05347,-0.05347,0.35464,0.22705,-0.053495,-0.53814,-0.23199,0.25264,0.15064,0.074075,-0.027993,-0.18107,0.09951,0.25259,0.099577,-0.28303,-0.18098,-0.05347,-0.1045,0.12507,0.30363,-0.13002,-0.10453,0.25254,0.099521,-0.002467,-0.002412,-0.002436,-0.23197,-0.15548,-0.28303,-0.13004,-0.00251,0.2526,0.27808,0.048531,-0.027944,-0.12997,-0.41047,0.15058,0.40557,0.25255,-0.15551,-0.18105,-0.13002,0.023072,0.15059,0.20161,-0.48708,-0.41057,0.048573,0.43117,0.15057,-0.18102,-0.25753,-0.002448,-0.15549,0.2526,0.25259,-0.053506,0.09954,-0.002448,0.074062,-0.002479,-0.10451,-0.027993,-0.079002,-0.078928,-0.053433,-0.18097,-0.20652,0.074038,0.099564,-0.079002,0.099534,0.20158,0.074057,-0.078984,0.2526,0.023029,-0.027998,-0.25753,-0.10446,0.15057,0.20157,-0.027969,-0.28304,-0.15548,0.1251,0.2271,0.12506,0.12502,-0.30855,-0.078947,-0.12998,-0.48706,0.048543,0.76267,0.15056,-0.30852,-0.1045,0.22708,0.17607,-0.002503,0.074062,-0.002448,-0.10444,-0.18095,0.023059,0.099528,-0.002516,0.048543,-0.002467,-0.027974,0.074044,0.12506,0.099546,-0.002467,-0.20648,0.15059,0.30356,-0.053482,0.023041,-0.07899,-0.053476,-0.078984,0.023041,-0.10447,-0.002436,-0.10449,-0.00251,0.27811,0.17607,-0.12998,-0.05347,-0.23201,0.15059,0.17607,-0.002491,0.099546,0.09957,-0.18098,-0.15549,-0.30858,-0.053482,0.17607,-0.053464,0.12508,0.1506,-0.078923,-0.10452,0.12497,0.40562,0.099595,-0.10448,-0.15548,-0.1555,-0.078966,0.074062,0.12505,0.15054,0.048531,-0.002491,-0.002503,-0.10446,-0.002443,0.023047,-0.35956,-0.2065,0.40561,0.48211,0.15058,-0.027962,-0.078959,-0.20652,-0.30855,-0.15549,-0.002454,0.2016,0.074051,0.17606,0.099564,-0.18101,-0.053495,-0.002467,-0.15552,0.20158,0.27811,0.12509,-0.10448,-0.12999,-0.20652,-0.181,0.22709,-0.053513,-0.15551,0.22708,0.20159,-0.002418,0.048567,0.073989,0.022974,-0.1555,-0.38501,0.15056,0.45661,-0.30851,-0.30846,-0.18098,-0.078953,0.15056,-0.20653,-0.18106,0.35456,0.35462,0.17609,0.074075,0.023059,-0.053439,-0.28303,-0.4871,-0.30852,0.12509,0.2526,0.17606,-0.027969,-0.1045,0.074062,0.023072,-0.053482,-0.15552,0.048512,0.20155,0.2016,0.023047,0.2271,-0.46157,-0.33404,0.22713,0.17612,0.099559,-0.25755,-0.10452,0.20155,0.12501,0.12505,-0.027944,-0.02792,-0.027901,0.074051,0.074013,-0.13003,-0.053506,0.023047,0.17609,0.17609,0.048536,-0.33402,-0.20646,0.12502,0.43108,0.20159,-0.15548,-0.33406,-0.027969,-0.18102,-0.027969,0.38011,0.17609,-0.05347,-0.15549,-0.053476,-0.078972,-0.12998,-0.027974,0.048531,-0.002485,0.023065,-0.15549,0.023059,-0.13,-0.078996,0.17607,0.40561,0.32907,0.023005,0.048531,0.074062,-0.20644,-0.53804,-0.053433,-0.027931,-0.46164,-0.3851,0.17611,0.45662,0.6096,0.27805,-0.078959,-0.078935,0.023047,-0.181,-0.23199,-0.38502,-0.002461,-0.028005,0.25257,-0.002454,0.023041,0.32912,0.20157,0.023047,-0.13001,-0.23204,-0.20653,0.20157,0.1251,-0.10443,0.22706,0.15057,0.023059,-0.41058,-0.33406,0.43113,-0.053464,-0.28302,-0.027993,0.22708,0.2526,-0.12998,0.023041,-0.078984,-0.07899,0.074069,0.09954,-0.38503,-0.33404,0.32915,0.40562,0.15054,0.15052,-0.13002,-0.2065,-0.13,0.023035,-0.078953,-0.15545,-0.053451,-0.027956,0.15059,0.12504,0.15052,0.17604,-0.28306,-0.38508,-0.027974,0.32914,0.25262,0.048573,-0.15546,-0.002461,-0.028005,-0.10451,0.023023,0.1761,0.023078,-0.18102,-0.33404,0.15061,0.1761,0.099521,0.099515,0.022992,-0.15548,-0.12999,0.074033,0.074062,0.023065,0.12507,0.023035,0.023035,0.048561,-0.15553,-0.1045,-0.002461,0.17607,0.023065,-0.078947,-0.15543,0.09954,0.20152,-0.028005,0.02301,0.074038,0.12505,0.023023,-0.18097,-0.43605,-0.078947,0.22711,0.32911,-0.028005,-0.1045,-0.078959,-0.05347,0.048561,0.15057,0.048506,-0.078996,-0.002454,-0.15551,-0.02798,0.38013,-0.13001,-0.13,-0.10447,-0.027931,-0.027969,-0.027993,-0.027944,-0.078947,-0.053476,-0.1045,0.048512,-0.23204,0.09957,0.20158,0.074087,0.2271,0.12505,-0.181,0.30353,0.20154,0.023047,-0.18101,-0.33406,-0.41055,0.023072,-0.1044,-0.10447,-0.002461,0.099534,0.20155,0.12507,-0.027987,-0.078972,0.15054,0.048536,0.023072,0.12507,-0.027998,-0.0535,-0.23203,-0.12997,-0.027944,0.048567,-0.30855,0.023035,0.2526,0.27811,-0.002467,0.048543,-0.078984,-0.027962,-0.18101,-0.002461,-0.078977,0.099564,0.023047,-0.053525,0.22707,0.25257,0.09954,-0.027969,-0.38507,-0.66558,-0.12998,0.32912,0.32915,0.17611,-0.053458,-0.18098,0.17607,0.073989,-0.46165,0.048531,-0.002423,0.12512,0.074093,0.12507,-0.002497,-0.053513,0.12504,-0.002461,-0.10447,0.023041,-0.078984,-0.18097,0.22705,0.27808,-0.078972,-0.30853,-0.28303,-0.027944,0.2781,0.22707,0.12504,0.15056,0.074057,0.023072,-0.18099,-0.35957,-0.002467,-0.078959,-0.12998,-0.30853,0.48211,0.43113,0.074062,-0.25751,-0.18103,-0.13002,0.074038,0.15058,0.12507,0.099583,-0.30851,-0.48707,0.074087,0.12509,0.15055,0.17605,0.22705,0.07402,0.099534,-0.053476,-0.23197,-0.56359,-0.10445,0.15056,0.3036,0.15057,0.048536,0.099546,-0.1045,-0.20652,0.099564,0.074051,-0.25748,0.15059,0.17609,-0.15551,-0.10451,0.15052,0.023047,-0.41055,-0.002448,0.38008,0.15059,0.099577,-0.027974,-0.10449,-0.027944,-0.053513,-0.20656,-0.027962,0.023072,-0.078941,0.17611,-0.053464,0.15054,0.022998,0.15055,0.17606,0.15056,-0.053482,-0.30852,-0.38503,-0.053433,-0.027931,0.15058,0.074033,-0.002485,-0.002497,0.17604,0.3036,-0.18101,-0.35954,-0.02792,0.048585,0.12505,-0.053488,0.15059,0.12506,-0.20652,-0.51262,-0.078996,0.20159,0.1761,-0.002443,0.099552,0.15053,-0.002503,0.048531,-0.002479,-0.079002,-0.1555,-0.053415,-0.18092,-0.33399,0.15052,0.12501,0.22704,0.20158,0.048549,-0.23203,-0.25751,0.32909,0.25259,0.023035,-0.20652,-0.30853,0.12507,0.15056,-0.053451,-0.078959,-0.05347,-0.10447,-0.027944,0.023054,-0.13,0.12503,-0.4361,0.048525,0.25258,0.074051,0.074033,0.20161,0.023072,-0.078935,-0.181,-0.15549,-0.078984,0.074044,-0.15554,-0.18105,0.12505,0.38014,0.023059,0.22709,0.099577,-0.30851,-0.18105,0.32908,0.12504,0.048561,-0.20645,-0.28298,-0.10445,-0.027956,-0.027969,-0.13004,0.023017,0.17604,0.15055,0.15056,0.20155,0.074069,-0.027938,0.20159,-0.25754,-0.46158,-0.23198,-0.002461,-0.028018,0.4566,0.35461,-0.28295,-0.12997,-0.002472,-0.18098,-0.28301,-0.02798,-0.028029,-0.15556,0.099534,0.35464,0.22709,0.074069,-0.10448,0.12505,0.07402,-0.18098,-0.10446,-0.07899,-0.1045,-0.027962,-0.002436,0.048549,-0.1045,0.12504,0.35458,0.27809,-0.181,-0.30854,-0.10449,-0.053446,-0.15546,0.048585,0.2526,-0.079014,0.048531,0.15054,0.12501,-0.002467,-0.027969,-0.12997,0.074062,0.27809,0.15061,-0.2575,-0.43605,-0.25753,0.048531,0.15056,0.15055,0.17605,0.15057,-0.20646,-0.18096,-0.15549,-0.053476,0.12505,-0.002479,-0.053506,0.17606,0.15059,-0.38502,0.023017,0.38011,0.099564,-0.078984,-0.15546,-0.41054,-0.15551,0.074044,-0.053451,0.2526,0.099546,-0.33405,-0.18104,0.1761,0.099564,0.074033,-0.10446,-0.002448,-0.078984,-0.027969,0.15056,0.048549,-0.15548,-0.43606,-0.12999,0.023041,0.25257,0.048555,0.048549,0.17607,0.023078,-0.078977,-0.1045,-0.12999,0.20155,0.099528,-0.23205,-0.13002,0.04858,0.15062,-0.12998,-0.15548,0.2526,0.12502,-0.13,0.023023,-0.12999,-0.02795,-0.027962,-0.002479,0.023078,0.074062,-0.25753,-0.15548,0.12509,0.1505,0.073995,-0.13001,0.099577,0.074087,-0.053409,-0.053421,-0.002454,-0.18101,-0.028018,0.27804,0.17603,0.22707,-0.002454,-0.15545,0.023096,-0.12996,-0.28305,-0.053506,0.17604,0.20154,0.20155,0.35461,-0.002436,-0.35951,-0.28302,0.30361,0.12503,-0.002497,-0.20649,-0.002461,0.048561,-0.05347,0.048555,0.048531,0.023035,-0.232,-0.002472,0.074044,0.048555,-0.05347,-0.053488,0.074038,0.048536,-0.15549,0.048585,-0.002461,0.048518,-0.027987,0.25256,0.099546,-0.13,-0.078935,-0.56355,-0.23197,0.023072,0.22707,0.15056,0.15057,0.15054,0.15052,-0.20652,0.074038,0.30356,-0.02795,-0.18097,-0.053421,0.099515,-0.23204,-0.28303,-0.12999,0.15059,0.25262,-0.18098,-0.33408,0.30361,0.2526,0.099534,-0.078996,-0.10448,-0.053464,-0.078959,0.099559,-0.027969,-0.02798,0.12506,0.40562,-0.027987,-0.38505,-0.30853,0.048531,0.074051,0.099552,0.15055,0.15056,-0.027931,0.099595,-0.10449,-0.23205,-0.25751,0.15055,0.30358,-0.20652,-0.33402,0.20162,0.099583,0.099564,0.12505,0.023029,-0.12999,-0.10449,-0.23203,0.048543,0.074081,0.048555,0.048543,-0.078959,-0.18101,0.12501,0.20154,0.15056,0.048555,-0.078959,-0.15546,-0.23199,0.074087,0.074044,-0.053531,-0.00251,0.023035,0.048506,0.12507,-0.15543,-0.28298,-0.23203,0.048567,0.1761,0.22705,0.022974,0.17602,0.074038,-0.002461,-0.12999,-0.053458,0.048585,-0.12996,-0.25753,0.023047,-0.002479,0.023023,-0.053482,0.20155,0.27808,-0.078966,-0.078959,-0.30849,-0.12996,-0.078977,0.023041,0.048518,0.074008,0.25256,0.023065,-0.48706,-0.05347,0.12509,-0.027987,-0.002491,0.12505,-0.027944,0.048549,0.023047,0.023059,-0.078953,-0.15547,-0.10447,-0.10449,0.099515,0.15052,0.30358,0.074038,-0.002461,-0.027944,-0.12999,-0.002461,-0.027938,0.048549,-0.053495,-0.027974,-0.078959,-0.002454,0.27805,0.22705,-0.10449,-0.078972,0.099657,-0.05347,-0.56364,-0.43612,0.32912,0.30358,0.15057,0.048561,0.074093,-0.027938,0.09957,-0.002491,0.099497,-0.078996,-0.15549,-0.15549,-0.283,-0.078947,0.074051,0.099559,0.048536,0.048543,-0.10449,-0.027993,0.25259,0.15054,0.25254,-0.05347,-0.18098,-0.25748,-0.23197,-0.002436,0.048525,-0.079002,0.12506,-0.053525,-0.13003,0.15058,0.15058,0.32913,-0.2065,-0.30854,-0.15552,0.048585,0.09957,0.12504,-0.027993,-0.027969,-0.15546,0.023072,-0.002443,0.17605,0.099528,-0.28302,-0.053513,0.048506,-0.027969,-0.10447,-0.10446,0.074075,-0.078977,-0.053464,0.15054,0.048512,-0.0535,-0.002491,0.17608,0.048555,-0.15547,-0.002454,-0.05347,-0.10445,-0.053464,-0.078972,0.20156,0.17603,-0.13004,-0.13001,-0.12998,0.099588,0.099583,0.099577,0.023054,0.099564,-0.23206,-0.23203,0.22707,0.12505,-0.10449,-0.002443,0.023078,0.048549,0.074013,-0.027998,-0.12997,-0.25751,-0.078977,0.048561,-0.12997,-0.027974,0.38012,0.17605,-0.20653,-0.30858,0.20156,-0.053519,0.22712,-0.18092,0.17606,0.3036,-0.20648,-0.23198,0.048536,0.22707,-0.20651,-0.43609,-0.1045,0.17607,0.17607,-0.05347,0.12506,0.12509,0.074069,0.023041,-0.027987,-0.028018,-0.07899,-0.002454,0.2016,-0.053476,-0.28305,0.074075,0.35464,-0.1045,-0.20658,-0.38511,0.32911,0.27812,-0.078947,-0.053421,-0.078935,-0.12997,-0.10447,0.074033,0.12501,0.17603,-0.053476,-0.30855,-0.078972,0.17611,-0.078935,-0.15548,0.048536,-0.027993,0.074051,-0.25756,0.048531,0.25261,-0.053446,-0.053451,0.20159,-0.078959,0.15056,-0.10454,-0.053513,0.17607,-0.00243,-0.12999,-0.078977,-0.078966,-0.053446,-0.15548,0.15053,-0.12999,-0.30853,-0.053488,0.17606,0.20158,0.15057,0.099559,-0.002443,-0.078947,-0.10449,-0.23204,0.12505,0.30356,0.17601,0.22707,-0.002448,-0.18097,-0.30851,-0.28298,-0.053451,0.048525,0.022974,0.20156,-0.078996,-0.13,0.2016,0.15061,-0.053446,-0.10449,0.12502,0.15055,0.074013,-0.002479,0.074044,-0.13,-0.078959,-0.00243,-0.12994,0.15059,-0.10451,-0.33405,-0.20652,0.17607,0.20157,0.17604,0.09954,0.17609,0.099588,-0.078953,-0.053495,-0.18101,-0.20652,0.30356,0.17604,0.023059,-0.18098,-0.23204,0.25262,0.27814,0.048585,-0.078972,-0.38506,-0.12999,-0.027962,0.074038,0.22705,0.17605,0.12508,0.22708,0.12502,-0.10452,-0.35953,-0.20647,-0.10445,0.023041,0.17607,0.12506,0.15057,0.048573,0.17604,-0.20651,-0.12998,0.099521,-0.002491,0.048506,0.22707,0.20159,-0.18095,-0.18098,-0.20652,-0.002461,0.2271,0.17607,0.15055,-0.002472,-0.15548,-0.027969,0.12505,-0.002479,-0.053482,0.023029,-0.13002,-0.18105,-0.10453,0.023047,0.099613,-0.18095,-0.053421,0.048555,-0.053495,0.023029,-0.027962,-0.053495,-0.027987,0.09954,-0.10452,-0.027969,0.04858,-0.15549,-0.053488,0.12507,0.12509,0.1761,-0.33409,-0.20656,0.25261,-0.027931,-0.12996,-0.078959,-0.002454,-0.10449,0.09954,0.0485,-0.078996,-0.15549,-0.15552,-0.002461,0.45664,0.15057,0.09957,-0.10446,-0.02798,0.074033,-0.002479,-0.10452,0.048567,-0.053458,-0.10445,-0.30851,0.27805,0.27806,-0.027974,-0.078996,0.023035,-0.12997,-0.12995,0.048561,0.074087,-0.002461,-0.38505,0.099546,-0.15551,-0.1045,0.099521,0.2781,0.20159,-0.002454,-0.053446,-0.053451,0.15057,0.022998,-0.33408,-0.1045,0.074062,0.12506,0.074044,0.074069,0.048573,-0.05347,0.048512,-0.25751,0.15057,0.12504,-0.13001,-0.053464,-0.02792,-0.078959,-0.053482,0.023035,0.22709,0.074026,-0.079021,0.074051,-0.053451,-0.25753,0.09951,0.48211,0.1251,-0.15545,-0.33401,-0.2575,-0.10447,-0.20651,-0.10454,0.22705,0.27811,-0.002412,-0.23204,-0.181,0.023047,0.27808,0.25257,0.12507,-0.12998,-0.13,0.074038,-0.027969,0.074038,-0.002443,-0.027956,-0.20652,-0.23205,-0.078984,-0.078977,-0.027956,-0.10446,-0.002454,0.20158,0.023065,0.023023,-0.027993,0.099534,0.02301,0.023054,-0.078966,-0.28304,0.099559,0.40564,-0.25753,-0.027993,-0.02798,0.15056,0.074044,-0.20649,-0.46154,0.099588,0.2016,-0.18102,-0.15549,-0.002461,-0.079014,-0.053482,0.40558,0.27804,-0.078972,-0.23197,-0.23198,0.023065,0.074069,-0.078972,-0.18103,0.074013,0.074013,0.3291,0.074051,-0.12998,-0.12999,-0.002423,-0.027938,0.12507,-0.002443,-0.12999,-0.4616,-0.15553,0.22708,0.17607,0.2016,0.099588,0.12509,-0.078984,-0.13002,0.074026,-0.053495,-0.002479,0.023023,-0.12997,-0.38502,-0.20649,0.099583,-0.078959,0.15057,0.15054,0.20153,0.17604,0.048543,-0.18097,-0.15547,-0.078935,-0.15546,-0.1555,-0.1045,0.048536,-0.002485,0.12503,0.22705,0.023035,-0.078941,-0.078928,0.12509,-0.20651,-0.23207,0.023029,0.074075,0.22708,-0.053488,-0.002491,-0.1555,-0.002412,-0.12996,-0.078972,-0.079008,0.12503,-0.053482,0.048549,-0.078977,-0.10447,0.023041,0.074062,-0.002467,0.20156,-0.053488,0.023035,0.099559,0.27803,-0.053531,-0.28299,-0.053409,-0.15545,-0.002467,0.099552,0.15056,0.22705,-0.078972,-0.25749,-0.15548,-0.12998,0.099564,0.048531,-0.079008,0.15054,0.22706,0.20157,0.023059,-0.10449,0.048543,-0.002467,-0.078959,-0.18099,0.12509,-0.10447,-0.002461,-0.053476,-0.13,0.023023,0.074044,-0.027969,0.074044,-0.053488,-0.18099,-0.027956,0.15056,0.099534,-0.079002,0.12505,0.023054,-0.18098,-0.33403,0.099619,0.09957,0.22706,-0.002461,0.099577,-0.15554,-0.10455,0.12504,0.1251,-0.25748,-0.51259,0.074087,0.023059,0.048536,-0.027969,0.4056,0.20156,-0.13001,-0.20654,-0.002436,-0.10444,-0.002418,-0.053482,0.07402,0.099515
-0.027987,-0.053495,-0.078959,-0.027969,-0.078972,-0.027925,-0.002461,-0.079014,-0.053495,-0.053458,-0.15549,0.09954,0.15055,0.074057,-0.002454,-0.002467,-0.002461,-0.002454,-0.027974,-0.07899,-0.002467,0.023029,0.023029,0.023059,0.023065,-0.053476,-0.002454,-0.02798,-0.079002,-0.07899,0.20154,0.17604,-0.078984,-0.027931,-0.078947,-0.23197,-0.027956,-0.027974,0.02301,0.074033,0.074038,0.09954,-0.078972,-0.10448,0.074075,-0.002443,0.048543,-0.002461,-0.10449,-0.002479,0.048549,-0.053476,0.048525,0.074069,-0.10446,-0.002461,0.048543,0.023035,0.099521,-0.13,-0.13,0.074062,0.099559,0.074062,0.023035,-0.027956,-0.02795,-0.1045,-0.1045,-0.002479,0.048536,-0.053476,-0.078984,0.074038,-0.002448,0.099583,-0.10446,-0.10451,0.099534,0.099546,-0.053482,-0.027969,-0.053476,0.074051,0.074062,0.099588,-0.12997,-0.002485,0.30356,-0.053488,-0.20651,0.074044,0.15057,-0.10445,-0.15548,-0.027956,0.048555,-0.07899,-0.1045,0.048512,0.099528,0.15054,0.17607,0.023059,-0.10444,-0.053446,0.074044,-0.079002,-0.078996,-0.002479,-0.027974,0.023041,0.074069,-0.002461,0.023059,-0.05347,-0.078984,-0.002467,0.048536,0.074038,-0.078977,0.023035,0.048525,0.023035,-0.05347,-0.078966,0.048549,0.074051,0.023047,0.023023,0.048525,-0.053488,-0.05347,0.023054,-0.027956,-0.02795,-0.027956,0.099552,0.074038,0.048531,-0.10449,-0.12998,-0.002461,0.023047,0.048549,0.099577,-0.027969,-0.0535,0.099534,0.023035,-0.002454,-0.15548,0.074026,0.17606,-0.10445,-0.053446,-0.18099,-0.053482,-0.027974,-0.053506,0.20153,0.20157,0.023041,-0.10448,-0.027944,-0.053427,-0.053464,-0.1555,0.023023,0.12504,0.09954,0.048531,-0.002472,-0.10449,-0.078959,-0.02795,-0.027969,-0.078984,-0.05347,-0.027974,0.048518,0.048536,-0.002454,0.048543,-0.002461,0.023059,-0.053439,-0.027974,-0.027998,-0.02798,-0.02798,0.023017,0.15055,0.099564,-0.12997,-0.053464,-0.053458,-0.002454,0.023023,0.15054,0.048518,-0.002461,0.048561,-0.078972,-0.078947,-0.15546,-0.053476,0.023005,-0.078984,-0.053495,0.07402,-0.02798,0.023054,0.074057,-0.002461,-0.078959,-0.078947,0.074033,0.048518,0.15056,-0.10448,-0.13,-0.053488,-0.181,-0.053446,0.074075,0.17609,0.22706,0.09954,0.023059,-0.078972,-0.13001,-0.15551,-0.07899,0.048561,0.35463,-0.027944,-0.10449,-0.15553,0.074051,0.048549,0.27806,0.023054,-0.10449,-0.18103,-0.20649,0.074111,0.22709,0.25254,-0.053519,-0.02798,-0.15548,-0.18097,-0.25754,0.048525,0.2271,0.12513,0.023041,-0.181,-0.002454,0.43107,-0.079008,-0.18103,0.20159,0.023096,0.02309,-0.027969,0.0485,0.12507,-0.181,-0.46164,0.176,0.4311,0.30363,-0.25745,-0.35946,-0.20641,0.12506,-0.1555,-0.053519,0.45662,0.023017,-0.18106,-0.92074,-0.23205,0.76273,0.45666,-0.2065,0.30364,0.20159,0.25255,0.27811,-0.05347,-0.078966,-0.20647,-0.002448,-0.38503,-0.28308,-0.38508,0.40565,0.32915,-0.28308,-0.99725,-0.61465,0.35466,1.0178,0.53315,0.022986,-0.027998,0.099595,-0.027962,-0.20649,0.099583,-0.002454,0.023041,-0.10447,0.12508,0.15059,-0.48713,-0.46162,-0.028005,-0.028018,0.40563,0.2781,0.17607,-0.23198,0.12509,0.32915,0.25262,-0.25756,-0.15557,0.17606,0.17609,-0.2065,-0.283,-0.10445,0.04858,0.09954,0.25257,0.17605,-0.002479,-0.13001,0.22711,-0.23201,-0.20651,0.17609,0.099588,-0.25754,-0.46162,0.074051,0.38014,0.55866,0.15056,0.22705,0.074075,-0.283,-0.56357,0.30363,-0.027969,-0.13,-0.002485,0.20155,0.17606,-0.25753,0.023084,0.12511,0.1506,0.074051,0.099515,-0.028023,-0.028011,0.20158,-0.053439,-0.28301,-0.76766,-0.30852,0.2271,0.25263,0.32911,0.20155,-0.07899,-0.10445,-0.053464,-0.027956,0.12504,0.074038,-0.12996,-0.078996,-0.028005,0.15055,-0.28306,-0.20651,-0.18096,0.12513,0.1761,-0.027993,-0.078972,0.15058,-0.002467,0.17609,-0.002472,-0.20655,-0.053519,0.43115,-0.10447,-0.15545,-0.15551,0.27806,-0.20651,0.074062,0.048549,-0.10449,0.09957,0.17606,-0.20652,-0.20649,0.15059,0.048518,-0.18101,-0.053476,0.048549,0.048543,-0.05347,-0.002479,0.099552,0.25262,-0.18105,0.09951,0.023047,0.04858,-0.002423,-0.027969,-0.28304,-0.35956,-0.10448,0.15057,0.2526,0.22707,0.17604,0.20155,-0.027938,-0.1555,-0.35954,-0.28306,0.15059,0.15062,-0.23206,0.27811,0.45663,-0.053506,-0.35956,-0.38507,0.20159,-0.053458,-0.15548,-0.15546,-0.002443,0.30358,0.32909,0.30357,0.12504,0.12503,-0.25745,-0.20652,-0.13002,-0.25751,-0.20646,0.048567,0.17608,-0.078972,0.074057,-0.002485,-0.13004,0.12504,-0.027974,-0.078972,-0.027944,0.27812,0.048549,0.099546,-0.078966,-0.25751,-0.23202,-0.41058,0.099588,0.20159,-0.00243,0.53313,0.048451,-0.13003,0.1761,-0.027931,-0.232,-0.35956,-0.027944,-0.002448,-0.078972,0.25259,0.20154,0.0485,-0.027962,0.048549,-0.078972,-0.18101,-0.10449,0.22712,-0.027956,-0.10449,0.048506,0.099546,-0.10449,-0.23203,0.15059,0.099583,-0.20649,-0.078984,0.20158,0.07402,-0.07899,0.22706,0.074062,0.15052,0.27806,-0.027944,-0.41048,-0.078898,-0.12999,-0.02798,-0.002472,-0.10451,-0.15551,0.048512,0.20155,0.25261,-0.28303,-0.02795,0.25262,0.3801,-0.002491,-0.20653,-0.18101,-0.053482,0.25262,-0.12999,-0.053458,0.20159,0.12508,0.2526,-0.15556,-0.13004,-0.0535,0.023023,0.2271,0.099564,-0.35951,-0.15548,0.17606,0.40562,0.074026,-0.15552,-0.18099,0.074057,0.20159,-0.23201,-0.74214,-0.053458,0.50767,0.48213,0.27805,0.2526,-0.25756,-0.41055,-0.078966,-0.053446,0.09954,0.17612,-0.20647,-0.15548,-0.18101,0.12501,0.38008,0.12505,0.099528,-0.10452,-0.20647,0.023108,-0.18094,-0.027962,-0.002503,-0.20653,-0.079008,0.15056,0.023059,0.048512,0.12503,-0.053464,-0.23196,0.048567,-0.027969,0.20159,0.22705,-0.30858,-0.053464,-0.12999,-0.35957,0.22712,0.17611,-0.078977,-0.10451,0.20156,0.15056,-0.053482,-0.002485,0.074038,-0.10448,-0.078959,-0.18099,0.12509,-0.15553,-0.35959,-0.10452,-0.078977,-0.10447,0.17614,0.12513,0.50765,0.32909,-0.23209,0.099552,0.12511,-0.33405,-0.30858,0.048561,0.099595,0.12508,-0.002443,0.048573,0.023029,-0.027987,-0.002497,0.12502,0.20156,-0.02795,-0.4871,-0.46154,0.22713,0.38009,0.45662,0.20161,-0.33404,-0.53814,0.09957,0.20162,0.25262,0.12505,-0.002461,0.048561,-0.053506,-0.28307,-0.23203,0.2781,0.12507,-0.002497,0.023041,0.074093,-0.12995,-0.078953,0.023041,-0.027987,-0.23203,0.20156,0.20156,-0.053506,0.048561,0.15062,0.048561,-0.20654,-0.027969,-0.53804,0.22706,0.25257,0.20155,0.17604,0.074081,-0.28299,-0.43605,-0.18098,-0.15548,-0.18101,0.17607,0.17607,-0.002521,0.17606,0.048567,-0.027938,0.074038,0.09954,-0.078947,-0.10449,0.023041,-0.15551,-0.18106,-0.028011,0.27817,0.15057,0.099583,0.023041,-0.1045,-0.23202,-0.12999,-0.13002,0.3036,0.20158,-0.18106,-0.12995,0.12512,-0.002448,0.12503,0.099546,0.2271,-0.10453,-0.35959,-0.12998,0.023054,0.3546,0.38016,-0.33404,-0.078996,-0.078984,0.023059,-0.002461,0.20155,0.073995,-0.15549,0.099619,-0.35951,-0.35956,0.4056,0.38005,0.099521,0.074051,-0.12999,-0.20652,0.023078,0.099619,-0.12994,-0.43602,-0.13001,0.17606,0.048487,0.12502,0.17608,-0.027962,-0.027962,0.048604,-0.20649,-0.078996,0.048525,-0.078996,-0.002454,0.20155,0.15052,-0.079021,0.15059,-0.12996,-0.30852,-0.002454,-0.2065,-0.12998,-0.23202,0.17604,0.22708,0.2271,0.17607,-0.027969,-0.15548,-0.078977,0.12504,-0.12999,-0.15551,0.02301,-0.027993,0.15054,0.099595,-0.053439,-0.002485,0.12507,0.17606,-0.002443,0.3291,-0.25753,-0.5891,0.12503,-0.15559,-0.28302,0.074149,0.023084,0.45664,0.53315,-0.28304,-0.30857,-0.13002,0.074075,-0.053464,-0.027956,-0.002423,0.09957,0.20153,-0.25755,-0.15551,-0.13,0.12506,-0.002448,-0.07899,-0.25753,0.048543,0.023096,0.1761,-0.027962,-0.028005,-0.002467,0.27805,-0.002479,-0.10447,-0.3085,-0.10445,-0.078947,0.20153,0.099521,0.048525,0.099559,0.023017,-0.053482,-0.053488,0.17608,-0.10445,-0.078947,-0.053464,-0.15548,-0.35956,-0.002479,0.074026,0.048531,-0.079002,0.074057,0.1251,-0.027931,-0.027956,-0.33406,-0.13002,0.12505,0.023059,-0.078977,0.099546,0.35459,-0.027974,-0.18101,-0.028023,-0.027974,-0.12998,0.38014,-0.002479,-0.28305,-0.02798,0.27812,0.099595,-0.027938,-0.35954,-0.35959,0.023029,0.35461,0.22707,0.25258,0.17611,-0.10447,-0.283,-0.23204,-0.078996,-0.05347,0.074038,0.17606,-0.002485,-0.28302,-0.12997,-0.283,0.12507,0.22709,0.099521,-0.027993,-0.10449,0.048536,-0.18095,0.074057,-0.079008,-0.027944,-0.10444,-0.053446,-0.027987,0.074038,-0.053519,0.3036,-0.027969,-0.15551,0.074038,-0.20656,-0.078972,0.20165,-0.027969,0.15057,0.023054,-0.1045,-0.28305,-0.028005,0.22708,-0.027925,-0.002436,-0.078959,0.099515,0.12505,-0.027969,-0.20651,-0.13002,0.023047,-0.13,0.12512,0.04858,0.099559,0.074051,-0.028011,0.022998,-0.20655,0.15052,-0.002454,0.099613,-0.078904,-0.23201,-0.078977,0.074069,0.15054,0.074038,-0.10452,0.048536,0.1761,-0.46156,-0.10453,0.20161,0.22709,0.22706,-0.18097,-0.12995,-0.078972,-0.35959,-0.002467,0.023065,0.27811,0.1761,0.048543,0.074026,-0.10451,0.09957,0.12505,-0.15553,-0.027962,0.27811,0.023072,-0.46157,-0.28303,0.2271,0.30361,0.20157,0.20155,-0.13003,-0.28302,-0.053446,0.20158,0.17612,-0.181,-0.18101,-0.078972,0.048536,0.15054,-0.283,0.17603,0.40556,0.12504,-0.053402,-0.30846,-0.053439,-0.027987,0.27805,0.27805,-0.002454,-0.28302,-0.28301,0.12509,0.099583,-0.15553,0.0485,0.35458,0.22708,0.15058,0.099546,-0.30854,0.074087,-0.28298,0.023078,-0.10447,-0.027944,-0.002491,0.099521,-0.13006,-0.20656,0.074051,0.17612,0.074093,0.048592,-0.15547,-0.002472,-0.002516,-0.079026,-0.002491,0.12505,0.15056,-0.002461,0.048598,-0.027944,-0.23204,-0.002497,0.12505,0.022992,0.17604,0.048549,-0.002436,0.074069,-0.33401,-0.15544,-0.12998,0.023017,0.074057,0.023041,0.20156,-0.18103,-0.23205,-0.10452,0.17609,0.32915,0.53317,-0.028023,-0.20653,-0.027938,-0.053409,0.074044,-0.28307,0.023059,-0.027944,-0.053476,0.099595,0.074057,-0.13001,-0.13001,0.17607,0.074038,-0.002472,-0.079008,0.023029,0.099583,0.074075,-0.002454,0.048512,0.074033,0.074044,-0.10446,-0.15548,-0.2065,-0.12998,-0.027938,0.15057,0.27809,-0.25754,-0.20651,0.074033,0.17609,-0.23202,-0.51256,-0.078941,0.22712,0.12509,0.17604,0.32908,0.07402,-0.002485,-0.28305,0.27811,0.12507,-0.28301,-0.20649,-0.078966,0.22708,0.12507,-0.05347,-0.027993,-0.10449,-0.053439,-0.053458,0.023047,-0.002461,0.048555,0.22704,0.048531,-0.15549,-0.2575,0.27808,-0.002467,-0.51258,-0.079002,0.15061,0.22712,0.048561,0.023017,-0.028005,0.074026,0.074044,-0.02798,-0.18098,0.17609,-0.15549,-0.23202,-0.002454,0.12508,-0.028018,0.20156,0.15056,-0.002503,-0.078977,-0.18097,0.074118,0.099588,0.12505,-0.13002,-0.15554,-0.027969,0.074062,0.048567,-0.027974,-0.078966,-0.002443,0.12503,0.07402,0.074051,-0.10447,-0.10446,-0.078966,0.023029,-0.078984,0.02301,0.27815,-0.12996,-0.28304,-0.028018,0.25256,0.12505,0.09957,-0.027931,-0.027969,-0.20652,-0.23201,-0.10446,0.32912,0.15054,-0.027974,-0.002461,0.02301,-0.02798,-0.13001,0.074075,0.02309,-0.002423,0.15056,0.12508,-0.15552,-0.20654,-0.30852,0.40557,0.25255,0.048567,-0.053433,-0.18097,-0.078966,0.074051,-0.18101,-0.002472,0.27806,0.2526,-0.20653,0.023047,0.1506,0.27812,-0.18103,-0.38509,-0.079008,-0.02798,-0.053482,0.099577,0.20159,0.074044,-0.00243,-0.002436,-0.15546,-0.053482,-0.002479,0.07402,-0.053537,0.048531,0.023035,0.20156,-0.053451,-0.10443,-0.23199,-0.079002,0.099546,-0.078996,-0.078977,-0.078977,0.074026,0.27811,0.20159,0.048555,-0.002461,-0.05347,-0.053476,-0.181,-0.28305,-0.13002,0.17609,0.3291,-0.20651,-0.43603,0.1506,0.12507,0.15056,0.074026,0.048512,-0.15551,-0.078953,0.09957,0.048555,0.099564,-0.10445,0.048518,0.40555,-0.002528,-0.1555,-0.25748,-0.027913,0.048549,-0.027962,-0.10449,0.17609,-0.15546,-0.283,-0.13005,0.27804,0.15059,0.22711,0.074081,-0.027956,0.099534,0.20158,-0.078984,-0.20652,0.023029,0.15059,0.048561,-0.078972,-0.053446,-0.002443,0.27811,0.048536,-0.25755,-0.18103,-0.25755,0.048555,0.22711,0.099601,0.074044,0.023041,-0.002472,-0.12999,-0.15553,0.20154,0.12505,0.15055,0.023054,-0.15551,-0.28298,0.048585,0.12507,0.074044,-0.0535,-0.05347,0.074069,-0.13001,-0.1045,0.074038,0.074051,0.15057,0.2016,-0.28297,0.07402,0.43106,0.12505,-0.12996,-0.12996,-0.232,-0.053476,-0.002467,-0.078966,-0.002467,-0.0535,0.15056,0.22708,0.22708,0.12506,-0.18101,-0.078984,0.048525,0.17609,0.1761,-0.18103,-0.1045,-0.12998,-0.053464,-0.002485,-0.02795,0.27811,0.074062,-0.18101,-0.002485,-0.002461,-0.053482,-0.13001,0.048543,0.074051,0.27809,0.12508,-0.10447,0.023047,-0.078959,-0.002497,0.099534,0.25263,-0.20653,-0.53813,-0.078977,0.25262,-0.078966,0.12511,0.0485,0.27808,0.27808,0.12503,0.15056,-0.33401,-0.283,-0.027956,-0.027931,-0.38501,0.074013,0.022986,-0.027962,0.17607,0.15056,0.17606,0.17607,-0.002448,-0.23199,-0.10445,-0.078972,0.023035,0.048549,-0.079002,0.12505,0.17609,-0.18103,-0.23204,-0.053464,0.17611,0.2526,0.22708,-0.078972,-0.41057,-0.13001,0.12507,0.20158,0.12505,-0.053464,0.074087,-0.15549,-0.23203,-0.1045,0.023029,0.22704,-0.10447,-0.027931,0.3291,-0.053495,-0.12997,-0.027974,-0.053439,-0.10447,0.048531,0.023035,-0.053495,0.048506,0.15053,0.099595,-0.10444,-0.23202,-0.10451,0.20159,-0.20655,-0.25754,0.048567,-0.02795,0.12508,0.30364,0.099588,-0.20652,-0.28301,0.27802,0.45657,0.12505,-0.078996,-0.33405,0.023059,0.074075,-0.12994,-0.053458,-0.20652,-0.078972,0.022998,0.27806,0.12504,0.074033,-0.2575,-0.18097,0.099583,0.074051,0.023017,0.048549,0.074026,0.099552,-0.1045,-0.1555,0.023072,-0.12996,0.12507,-0.002448,0.022986,-0.002472,0.048531,0.22707,-0.10452,-0.33405,-0.13001,0.27811,0.25264,0.023065,-0.079008,-0.20652,-0.078972,0.048561,-0.002479,-0.07899,0.22712,-0.027974,-0.181,0.048518,0.099521,-0.10448,-0.20647,-0.10447,0.048555,-0.027956,-0.002467,-0.33404,0.1251,0.27808,0.15053,0.22707,0.048525,0.048518,0.15056,-0.027938,-0.15545,-0.20648,-0.181,-0.053464,-0.12998,-0.18099,0.15051,0.15054,0.17604,0.22706,-0.078947,-0.12993,-0.18097,0.048567,-0.15551,-0.23202,-0.079008,0.15052,0.22705,0.2016,-0.002423,-0.027931,0.1506,0.15057,0.07402,-0.35957,-0.28305,0.15057,0.12506,-0.23205,0.2526,0.12512,0.12509,0.12507,0.023005,0.048518,-0.12996,-0.078984,-0.25755,-0.002485,0.048567,-0.027931,-0.053451,-0.07899,-0.02798,-0.027987,0.12504,0.15057,0.15055,0.023041,-0.10447,-0.053476,0.099601,-0.283,-0.46155,0.32904,0.43109,0.048531,-0.15549,-0.12998,0.099583,-0.002448,-0.027944,0.15059,-0.25751,-0.38514,-0.028029,0.15057,0.099577,0.30361,0.27811,-0.33398,-0.027993,-0.053519,0.15057,-0.002423,-0.078966,-0.20651,0.023029,0.20156,-0.05347,0.099583,-0.15546,-0.25752,-0.10448,0.074038,-0.053488,-0.027987,0.15055,0.17607,-0.002454,-0.078959,0.023047,-0.10448,-0.0535,0.074051,0.023029,0.15059,-0.38508,-0.43612,0.20158,0.27814,-0.002461,-0.053446,-0.15547,-0.15551,0.023029,0.048536,0.048543,-0.078941,0.15054,0.099546,-0.002461,-0.078996,-0.1045,-0.1045,0.048536,-0.002467,-0.002461,-0.028005,-0.12996,-0.10445,-0.10444,-0.002448,-0.053476,0.02301,-0.002491,0.20156,0.32912,0.048536,-0.28303,-0.078959,0.2526,0.12504,0.022998,0.023047,0.023065,-0.25754,0.048561,-0.10447,-0.28302,0.12505,0.43112,0.2526,-0.15548,-0.1555,-0.13001,-0.027969,-0.053482,-0.181,-0.10447,-0.078966,0.12509,-0.25748,0.20152,0.30354,0.12504,-0.027993,0.023047,-0.12994,-0.078941,-0.3595,-0.15548,0.43111,0.074038,-0.15548,-0.13003,-0.027998,0.048531,0.048518,0.17609,-0.002436,0.074038,-0.053446,-0.027974,0.25258,-0.079039,-0.15555,-0.12997,0.04858,-0.00243,0.023103,0.023054,-0.07899,-0.28307,0.099521,0.22705,-0.002472,0.023041,-0.10445,-0.334,-0.18097,-0.078972,0.048555,-0.028005,0.25256,0.074051,-0.053513,-0.13002,0.048561,0.1251,-0.027956,-0.28302,-0.053451,-0.027969,0.048543,0.023035,-0.002461,-0.10447,0.17604,0.15054,-0.10445,0.023072,-0.12996,-0.10449,0.09954,0.099546,0.17602,-0.028023,0.023072,0.023096,-0.12994,-0.20649,-0.28302,-0.13002,0.15054,0.22706,0.048518,0.22705,0.20158,-0.10446,-0.15546,-0.027944,-0.002448,-0.15548,-0.13002,-0.028005,0.099552,0.09957,0.074051,-0.23204,-0.002461,0.023084,0.048567,0.074044,-0.027998,-0.079002,-0.027987,-0.027974,0.048549,-0.053439,-0.078972,-0.002454,0.099564,0.15055,0.17602,0.074026,-0.10448,-0.23201,-0.15546,0.048585,0.17608,0.023047,0.20159,-0.1045,-0.28308,-0.28308,0.27811,0.2526,0.27809,0.04858,0.074093,-0.053439,-0.25751,-0.25756,-0.078996,0.15054,0.074013,0.074038,0.15059,-0.002436,-0.12999,-0.20653,-0.20646,0.12506,0.22705,-0.078984,-0.28302,-0.15549,0.15055,-0.027969,-0.18099,-0.078959,-0.002454,0.074026,0.22707,0.15054,-0.078996,-0.13,-0.15549,-0.28298,0.048585,0.15059,-0.078984,-0.15551,0.074038,0.15055,-0.1045,-0.027974,0.023041,0.17607,0.074062,0.048561,-0.053476,0.12506,0.2271,-0.33407,-0.8442,-0.027956,0.40566,0.22708,0.099601,0.17609,0.1251,-0.1045,-0.1045,-0.30855,0.07402,0.17607,-0.053488,-0.25752,-0.12997,-0.10445,0.023072,0.15056,-0.027993,-0.002461,0.048525,0.15054,-0.027969,-0.232,0.048567,0.074075,0.099546,-0.18101,-0.02798,-0.002479,-0.078984,0.023059,0.25257,-0.02798,-0.078966,-0.02792,0.17604,0.25251,0.048536,0.074075,-0.079008,-0.078953,-0.18095,-0.027931,-0.078972,0.02301,0.4056,0.074044,-0.2065,0.074051,-0.1045,-0.41058,0.023029,0.17609,0.15062,-0.027938,-0.002461,0.15054,0.048512,-0.0535,-0.027993,-0.181,-0.002454,-0.05347,-0.23199,-0.078941,0.048549,0.023029,0.074057,-0.053495,-0.18103,0.048543,0.048573,0.023047,-0.002472,0.074062,0.25257,0.02301,-0.15551,-0.10449,0.048536,-0.078977,-0.15547,-0.02792,0.2016,0.15058,0.099546,-0.10449,-0.10449,-0.053482,-0.002491,0.048512,-0.027974,0.099588,-0.078953,-0.053458,-0.02795,-0.002491,0.07402,0.27808,-0.18103,-0.43609,0.17611,-0.002467,-0.05347,0.12512,-0.027931,-0.027962,-0.15551,0.09954,0.09954,-0.053495,-0.053458,-0.15548,0.25257,0.27805,0.04858,-0.28301,-0.48706,-0.12997,0.023054,0.3291,0.099546,0.099528,-0.15551,0.048585,-0.28298,0.074013,0.30356,0.023047,-0.053451,-0.12998,0.023035,-0.053482,0.048549,0.048567,0.12507,-0.002491,-0.13,-0.0535,-0.027998,-0.05347,-0.05347,0.048561,0.2271,-0.05347,0.12505,-0.078984,-0.28303,-0.30852,0.20161,0.12502,0.099521,0.12505,-0.002454,0.048561,-0.078947,-0.002461,0.048549,0.074044,0.048518,-0.10449,-0.181,-0.053458,0.074069,-0.078977,-0.28305,0.12505,0.12507,0.12506,-0.12999,0.27803,0.45658,0.048561,-0.18095,-0.33399,-0.23199,0.074051,-0.15553,-0.25754,-0.078996,0.22711,0.20156,0.048531,0.074062,0.074093,0.074033,-0.078996,0.023054,-0.23199,-0.15553,-0.20653,0.22706,0.09957,0.048585,-0.12998,0.074013,0.32909,0.22708,-0.18099,-0.25749,-0.23199,-0.078984,-0.13001,0.12508,-0.027938,0.048536,0.099521,0.17604,0.20155,0.048512,-0.002485,-0.15546,-0.25748,-0.15548,-0.078947,-0.027938,0.099552,0.074038,0.22705,-0.10453,-0.20652,-0.25751,0.048585,0.25267,-0.18101,-0.2066,-0.13002,0.2271,0.25257,0.099515,0.099564,-0.078947,-0.15545,-0.027925,-0.002443,-0.30851,0.30353,0.30356,0.12504,-0.23201,-0.10448,-0.10444,0.023054,0.074081,-0.20647,-0.078996,-0.00251,0.45657,0.25258,0.048561,-0.002461,-0.10446,-0.23199,0.074069,0.27812,-0.13002,-0.43608,-0.027956,0.43114,0.07402,-0.33407,-0.12998,0.074118,0.048561,0.074069,0.048536,-0.053488,-0.002461,0.023017,-0.10452,0.023023,-0.027969,-0.078947,-0.002461,-0.002472,0.30358,0.20155,0.074044,-0.28302,-0.23204,-0.078972,0.099588,0.048567,-0.053446,-0.15546,-0.027956,0.12502,0.15056,0.048518,-0.10455,-0.13002,0.17607,0.17612,-0.053409,-0.18092,-0.12996,0.53307,0.20154,-0.35954,-0.38506,-0.053506,0.15054,0.12504,0.17607,0.04858,-0.15544,-0.078928,-0.25751,-0.43609,-0.20655,0.20156,0.50764,0.27808,0.074038,0.099577,0.25261,0.048561,-0.12999,-0.15549,-0.10452,0.048536,-0.078996,-0.12998,-0.38503,-0.053433,0.2526,0.099546,0.02301,0.048512,-0.079008,0.023029,0.099577,0.12509,-0.078977,-0.078984,-0.002467,0.048536,-0.15549,-0.05347,-0.12999,-0.078996,0.27806,0.17604,0.20159,0.074069,0.15059,-0.28303,-0.027962,-0.027969,-0.027974,-0.002461,-0.10445,0.023047,0.074062,0.099564,0.3036,-0.18107,-0.30858,-0.027938,0.50763,0.30358,0.099583,-0.20653,-0.56359,-0.28298,0.074111,0.1761,0.07402,0.074008,0.07402,-0.053488,-0.20649,-0.053488,0.20159,0.15062,-0.053451,-0.05347,-0.10451,-0.23202,0.023005,-0.027956,0.048573,0.048555,0.023047,0.099559,-0.10449,-0.002472,0.023035,0.12506,-0.002479,-0.078984,-0.079002,0.099564,-0.12994,0.023054,0.074051,0.074044,0.023017,-0.46159,-0.35956,0.50768,0.048549,-0.28305,0.20158,0.048573,0.023059,0.09957,0.023059,-0.12999,-0.053506,0.27806,0.074033,-0.078984,-0.23199,0.40559,0.048549,-0.18097,-0.053476,-0.2065,-0.07899,-0.10447,0.048549,0.099552,-0.002461,0.023059,0.12508,0.074062,0.099559,0.099485,-0.1045,0.17611,-0.28303,-0.41056,-0.078941,0.25265,0.2271,0.074038,-0.027987,0.12506,0.074038,-0.10451,0.048543,-0.002467,-0.078953,-0.002436,-0.053464,0.099564,-0.25753,-0.18103,0.12503,0.048531,0.048555,-0.027956,0.12508,0.12507,-0.20648,-0.002448,-0.053464,-0.15555,0.38007,0.22705,-0.23203,-0.2575,-0.078923,0.15064,0.17614,-0.053513,-0.28308,-0.15554,0.074051,0.12505,0.20157,0.02301,-0.25751,-0.41047,0.38011,0.22705,-0.078977,-0.20652,-0.10449,0.074044,-0.027944,-0.15548,0.048567,0.27812,0.048567,-0.30858,-0.10453,0.32909,-0.13,-0.027969,0.17609,-0.002405,-0.12998,0.15059,0.074069,-0.079008,-0.15553,-0.0535,-0.078984,-0.23203,-0.078996,0.12507,0.12509,0.17609,-0.027931,0.12507,0.023023,-0.053495,-0.053506,0.048512,0.30359,0.048549,-0.12998,-0.10443,-0.28298,-0.33402,-0.20652,0.074062,0.68609,0.53306,-0.053451,-0.23197,-0.12996,-0.18094,0.099595,-0.079008,-0.10452,-0.053519,0.048506,0.12505,0.074062,0.17611,-0.002418,-0.13,-0.18101,0.023023,-0.002479,-0.078996,0.074044,0.22707,0.17606,-0.20649,-0.5125,0.074044,0.22708,0.15056,-0.13002,-0.027969,0.12506,0.12508,-0.027962,-0.2065,0.12509,0.12508,0.15057,0.02301,-0.13,-0.15549,0.20155,-0.027993,-0.18101,0.048549,0.099619,-0.35952,-0.078972,0.099588,0.32906,0.074013,0.023035,0.09954,-0.15549,-0.15548,-0.15546,-0.053433,0.25259,0.12502,-0.28305,-0.25755,-0.05347,0.12507,0.3291,0.17609,-0.027944,-0.078972,-0.027987,0.22704,-0.002448,-0.078959,-0.15549,-0.30854,-0.053482,0.023035,-0.002443,0.0741,-0.13,-0.002491,0.4056,0.30361,0.048536,-0.12999,-0.002472,-0.12995,-0.15545,-0.078953,-0.12999,0.22705,-0.053495,-0.027987,-0.079021,0.27803,0.09957,-0.10444,-0.20648,-0.002436,0.048555,0.15056,0.074075,-0.10449,-0.2575,0.20153,0.048512,-0.25755,0.15059,0.32911,0.20157,-0.002472,-0.35954,-0.078966,0.048549,0.09957,0.023047,0.048561,-0.002491,-0.002448,0.099552,0.074038,0.22707,0.023041,-0.15547,-0.13001,-0.053476,0.099564,0.30364,0.12509,-0.18102,-0.0535,0.074044,0.17609,0.023047,-0.15549,0.099564,0.17607,0.074033,-0.1045,-0.15551,-0.002485,-0.13,-0.30853,0.023072,0.22709,0.20159,-0.1555,-0.027962,0.074057,0.20156,0.12502,0.17604,0.20159,-0.10452,-0.078996,-0.15545,-0.15545,0.023096,-0.12999,-0.30856,0.074051,-0.1555,0.099552,0.25258,0.15055,-0.30851,0.27806,0.15054,-0.053458,-0.33401,-0.053458,-0.10451,0.12504,-0.12999,0.17609,0.099564,0.20155,0.099564,-0.053451,-0.18098,-0.13001,0.099546,0.15053,0.12505,0.12508,-0.002448,-0.38504,-0.181,0.22711,0.17607,0.38011,0.15054,0.02301,-0.053495,-0.20652,-0.283,-0.23201,0.048598,0.12512,0.22709,0.099479,-0.027987,0.22711,-0.079045,-0.48711,-0.053458,0.15059,-0.02792,0.099564,-0.078972,0.12504,0.048531,0.074038,-0.13001,-0.13002,-0.053476,0.17608,0.20162,-0.002467,-0.43607,0.048525,0.15057,0.048561,-0.28305,-0.10449,0.0741,0.2016,0.074069,0.023059,0.074051,0.25257,-0.079008,-0.33405,-0.18103,0.27811,-0.12998,-0.232,0.023084,0.15059,0.099552,0.22706,-0.12996,0.099521,0.099515,-0.20652,-0.15548,-0.078953,0.22712,0.17609,-0.25754,-0.10452,0.12508,0.074038,-0.053495,-0.13001,0.023047,-0.002436,-0.002423,0.099588,-0.002467,-0.028005,-0.028011,-0.027962,0.074013,0.15058,-0.12998,-0.35953,-0.15548,0.15064,0.099564,0.17604,-0.002497,0.12503,0.20156,0.45663,0.023041,-0.28302,-0.25751,-0.10445,-0.12998,-0.079008,0.099559,0.22709,0.048531,-0.10451,0.023035,0.099583,0.074069,-0.12999,-0.30852,0.27808,0.35458,0.099559,-0.10449,-0.33404,-0.23203,0.02301,0.1761,0.22715,0.12511,-0.053488,-0.46161,-0.078996,0.22706,0.09954,0.15057,0.12509,0.09957,-0.10446,-0.10449,0.15054,-0.027993,-0.027969,-0.07899,0.12507,-0.079002,-0.58914,-0.12996,0.40563,0.2271,0.099564,0.023035,0.074051,-0.12998,-0.20653,0.074026,0.099552,-0.078953,-0.15546,-0.15549,0.048536,0.12505,0.099564,-0.053476,0.023035,-0.028005,-0.002485,-0.10448,0.15062,-0.053402,0.22706,0.27806,0.02301,-0.13002,-0.2065,-0.027969,0.048543,0.22709,-0.00243,-0.10447,-0.07899,-0.10449,0.07402,0.17605,0.074044,-0.053458,-0.027962,-0.078947,0.074087,-0.61463,-0.10453,0.2526,0.27809,0.17604,-0.002497,0.17606,0.048549,-0.02795,-0.10447,-0.20649,-0.078984,-0.053482,-0.027974,-0.027962,-0.053482,-0.10449,-0.13002,0.074051,0.27812,-0.10447,-0.33401,-0.002443,0.12505,0.43107,0.22705,0.099559,-0.23201,-0.41056,-0.12996,0.12509,0.20157,0.099552,-0.12998,0.022998,0.023023,-0.10447,-0.12996,-0.2575,0.048555,-0.027993,0.20155,0.27807,0.22707,-0.15549,-0.15551,0.15056,0.12507,-0.20651,-0.078984,-0.002467,-0.10449,-0.053476,-0.002454,0.09954,0.099546,0.099552,-0.002479,-0.25753,-0.002461,0.15059,0.023035,-0.027944,-0.25754,0.023047,-0.027993,0.12507,0.12505,-0.027962,0.023072,-0.027938,-0.027974,-0.13002,-0.02798,0.099546,-0.079014,0.023005,0.43111,0.17609,-0.12994,-0.28298,-0.078972,-0.10447,0.15053,0.32906,-0.23204,-0.18101,-0.053433,0.0741,0.099577,0.074033,0.20155,-0.10452,-0.002436,-0.181,-0.002472,0.099552,0.074051,0.1506,0.023054,-0.1045,-0.10452,0.15058,-0.15549,-0.0535,0.074026,0.074062,0.074062,-0.053451,0.22713,-0.002436,-0.23203,-0.23203,0.22706,0.15057,-0.002467,-0.078996,0.12506,0.099559,0.023054,-0.12999,0.023023,-0.027969,-0.10448,-0.002491,0.048525,0.099564,-0.02795,-0.1045,-0.18097,-0.10448,0.074051,0.30361,-0.027974,-0.18105,-0.027987,-0.20649,0.27806,0.15055,0.30363,-0.10443,-0.027938,-0.15551,-0.35957,-0.15552,0.048518,0.27809,0.023065,0.02309,-0.02792,-0.12998,-0.1555,0.22707,0.048531,0.22706,0.176,-0.13002,-0.002443,0.074106,-0.053446,-0.1045,-0.02798,0.048543,-0.078977,-0.10448,0.099546,0.099521,0.15057,-0.027969,-0.002436,-0.078953,0.023047,-0.05347,-0.027974,-0.002503,0.048531,0.099564,0.22709,0.12506,-0.079002,0.074062,0.12507,-0.15548,-0.20649,-0.10447,-0.15551,0.048531,-0.002485,0.099583,-0.02792,0.27808,0.074002,-0.10452,-0.12998,-0.181,-0.028018,0.40562,0.1761,-0.13,-0.28298,-0.053446,0.023017,0.22707,-0.23199,-0.1045,0.17607,0.048543,-0.10451,0.12504,0.12507,-0.027931,-0.05347,-0.18101,-0.02798,0.30354,0.048531,-0.02795,-0.002461,-0.38504,0.074069,0.048585,0.099559,-0.028005,-0.20652,-0.0535,0.048536,-0.05347,-0.027962,-0.15547,0.074062,0.074057,0.12504,-0.002491,-0.15551,0.074026,0.20155,-0.053495,-0.0535,0.09957,0.099619,-0.10441,-0.43604,-0.30855,0.074051,0.3546,0.22705,-0.0535,-0.028005,-0.078966,0.099588,-0.002454,0.023047,-0.002448,0.048525,0.074002,-0.20653,-0.10449,-0.053446,0.12509,0.1506,-0.23202,-0.13001,0.074038,0.09957,-0.002479,-0.02798,0.15057,-0.053482,-0.027938,-0.027969,-0.002467,-0.027944,-0.15551,0.074013,0.22706,0.023041,-0.027969,-0.13001,0.099613,-0.02792,-0.30853,-0.28302,0.38006,0.22704,-0.15549,0.22706,0.02301,-0.23199,0.1251,-0.12997,-0.0535,0.074044,0.048549,-0.027969,-0.13,-0.053464,-0.002467,-0.002467,-0.002443,0.12505,0.048555,-0.10448,0.17605,0.12503,0.12507,-0.12998,-0.18101,-0.05347,0.099552,0.074057,0.074062,-0.10445,-0.25751
-0.10449,-0.053495,0.12504,-0.002491,0.048555,0.023054,-0.05347,0.023054,0.12505,0.048549,0.023047,-0.027962,-0.18099,-0.07899,0.12504,-0.15548,0.099564,0.048561,0.048549,0.023023,-0.053476,-0.002467,-0.053476,-0.053482,0.12504,0.17606,-0.053446,0.15058,0.074057,-0.10447,-0.027956,-0.13002,0.023029,0.048561,-0.053476,0.023054,0.023029,0.25259,0.099577,0.023054,-0.10448,-0.1045,-0.1045,0.074026,0.22707,-0.027969,-0.053464,-0.078966,-0.02795,0.048549,0.15057,-0.07899,-0.027993,-0.10449,-0.10449,0.048531,0.12505,0.09957,0.023059,0.023047,-0.078984,0.048531,-0.027974,-0.28304,0.023035,0.12505,0.15057,-0.002467,-0.027969,0.023065,-0.10448,-0.15551,-0.002479,0.048536,-0.027969,-0.027974,-0.10451,0.074057,0.099595,0.023047,0.099546,0.074051,-0.12999,-0.13001,0.048531,0.099564,-0.027962,-0.053464,0.12507,0.12507,-0.12998,-0.20652,-0.02798,0.15056,-0.1045,0.12506,0.25259,-0.027956,-0.027969,0.09957,-0.078959,-0.232,0.17603,0.27805,-0.078977,-0.027969,0.09957,0.023054,-0.12997,-0.053464,0.12506,0.023023,-0.053482,0.048531,0.15054,0.099552,0.048543,-0.002448,-0.078972,-0.027969,-0.078972,-0.078966,-0.002479,-0.079021,-0.002472,0.15057,-0.027962,0.15058,0.09957,-0.15548,-0.05347,0.099534,0.074038,-0.10449,-0.07899,-0.02798,0.09957,-0.02795,-0.027956,0.074062,-0.027962,-0.027987,-0.053495,0.12503,0.12505,0.099552,-0.10447,-0.18099,0.09957,0.074087,-0.15548,-0.13002,0.048536,0.15054,0.099559,-0.053476,-0.078977,0.048543,0.17607,0.023035,0.023041,-0.053464,0.074069,-0.10449,-0.23203,0.074038,-0.13001,-0.20652,0.1761,0.22713,-0.002461,-0.18101,0.17609,-0.28303,-0.18105,-0.15549,0.12505,0.4311,0.074087,-0.28296,0.048549,-0.02798,0.15049,-0.053446,0.30356,0.074038,-0.18101,-0.20652,-0.58905,-0.20649,0.55867,0.35458,-0.23197,-0.25753,0.48209,0.048549,-0.12995,0.048585,-0.027987,0.022992,-0.15548,-0.51255,0.04861,-0.41057,0.38008,0.66058,-0.15551,-0.053458,0.22715,-0.56357,-0.12998,1.2728,-0.51264,-1.2523,0.15062,0.38011,0.53319,1.0433,0.32915,-0.66561,-1.1248,-0.10458,0.76267,-0.25746,0.81374,0.099491,-1.0993,-0.6146,0.25267,0.15065,-0.46152,-0.10452,0.73717,0.15059,-0.35954,-0.20652,-0.23199,0.12507,0.12504,0.20158,-0.15549,0.27809,-0.027993,0.20156,-0.15555,0.43108,-0.10447,-0.078947,-0.12993,-0.002387,-0.002436,-0.43609,-0.51263,0.12504,0.15052,0.023041,0.53315,0.43114,0.20156,-0.25749,-0.20647,-0.30856,0.048549,0.22715,-0.053513,-0.2321,-0.002454,0.2016,-0.078947,-0.23201,0.15057,-0.1045,-0.18103,0.48214,0.17609,-0.51262,-0.61466,0.27811,0.12509,-0.33401,0.023041,0.27809,0.30361,0.22703,0.20153,-0.12999,-0.10445,0.12508,-0.48702,-0.15549,-0.20649,0.048567,-0.0535,-0.18105,0.09951,0.12503,-0.053464,0.35462,-0.078935,0.20159,-0.15547,-0.30854,0.048549,0.17605,0.30356,0.074051,-0.10446,0.17611,0.22717,-0.41056,-0.84426,-0.56369,0.20158,1.0433,0.20164,-0.25751,0.15058,0.074069,-0.81868,-0.35956,0.50767,0.40563,0.2526,0.074026,-0.079021,-0.18101,-0.232,-0.38502,-0.053439,-0.002467,0.12506,-0.002467,0.074033,0.25256,-0.0535,-0.10451,-0.027944,-0.002448,0.20159,0.20163,-0.2065,-0.41056,0.27807,0.15054,-0.10452,0.15059,0.074069,-0.027987,0.15058,-0.12994,-0.10446,-0.027987,-0.13001,-0.05347,0.023023,-0.079063,-0.58915,0.048561,0.32914,0.58425,-0.053464,-0.23204,0.38012,-0.027987,-0.56363,-0.46156,0.27811,0.35462,0.22711,-0.027944,0.17609,-0.20649,-0.18106,-0.13004,0.099546,-0.05347,-0.1555,0.074044,0.15057,0.3036,-0.33401,-0.15549,-0.10448,0.4311,0.48216,-0.053488,-0.13005,-0.30855,-0.12994,-0.053415,0.20163,-0.18099,-0.002467,0.099577,-0.053488,-0.15556,-0.002516,0.048536,0.2781,0.12509,-0.25754,-0.30855,0.023035,-0.002479,0.2781,0.20161,-0.3085,-0.10447,0.22709,0.32914,-0.053482,-0.43609,-0.23204,0.09957,0.12507,0.099583,0.15056,0.023005,0.048536,-0.18099,0.048536,-0.078959,-0.027987,0.38006,0.20158,-0.28298,-0.35953,0.32913,-0.10447,-0.38506,0.099521,-0.05347,0.12507,-0.002461,0.15056,0.099546,-0.18101,0.17607,-0.12995,-0.23201,-0.079014,0.074033,-0.002454,-0.23203,0.048555,0.074044,0.023041,-0.13,0.2271,0.074057,0.099588,-0.078972,-0.2575,-0.20652,-0.002491,0.048518,-0.10449,-0.002485,0.3036,0.35462,-0.20647,-0.12998,-0.078977,0.048506,0.023035,0.22706,-0.027969,-0.078972,0.099583,-0.2575,-0.232,0.048561,0.20155,0.45659,-0.20658,-0.002467,-0.002418,-0.078953,0.25263,-0.12998,-0.38508,-0.053495,0.27809,-0.002491,0.074033,0.17607,-0.027974,0.048555,0.048536,0.27809,0.12509,-0.51259,-0.94622,0.048543,0.38013,0.38014,0.32913,-0.027969,-0.28302,0.0977,-0.10448,0.12507,0.22708,0.048555,-0.10449,-0.23204,-0.20654,0.25256,-0.002454,-0.053446,-0.2065,0.023059,-0.18096,0.099521,0.81366,0.15052,-0.48711,-1.0737,-0.18094,0.04861,0.35471,0.17613,0.023029,0.099503,0.38006,-0.15553,-0.079021,-0.10449,-0.078959,-0.002443,-0.027993,-0.18104,0.048585,-0.053451,-0.002516,0.12505,0.22709,-0.053427,-0.12998,-0.002436,-0.078953,-0.20652,-0.30861,0.32907,0.30361,-0.15548,-0.028023,0.3291,0.15059,0.1251,-0.10446,-0.30856,-0.079021,-0.18102,0.17606,0.25259,0.12507,0.023054,-0.027956,0.074075,-0.078953,-0.38506,-0.48709,-0.25753,0.2781,0.50764,0.35458,-0.15553,-0.41052,-0.053415,-0.10442,-0.181,0.20149,0.40558,0.32909,0.099564,-0.053446,-0.51256,-0.46155,-0.181,0.32912,0.2271,-0.10452,-0.48713,-0.20656,0.30363,0.43118,0.17609,-0.25751,-0.25754,0.25262,0.3291,0.023029,-0.13002,-0.002472,-0.002454,-0.053513,-0.28304,-0.027938,-0.15546,0.023072,-0.10445,0.099559,0.048518,0.15054,0.12504,-0.002436,-0.10449,0.17606,-0.0535,-0.33405,0.15059,0.17609,0.023059,0.12507,0.023023,0.17603,0.023029,-0.10443,-0.18096,-0.027944,-0.18101,0.099546,-0.1045,0.074051,0.12506,0.20159,-0.1045,-0.43609,-0.00243,0.25263,0.15054,0.20152,0.4821,0.2016,-0.48708,-0.25748,0.048604,-0.053464,-0.28302,0.17609,0.17607,0.17609,0.12505,-0.15554,-0.28306,-0.10451,0.074044,-0.053495,0.20163,-0.078923,0.099559,0.17604,-0.027993,0.048518,0.099564,-0.12999,0.022974,-0.002467,-0.28295,-0.15546,-0.002436,0.048543,0.25258,-0.079008,-0.002491,-0.027993,0.048518,-0.078959,0.099601,0.12508,0.15057,0.074051,-0.23202,-0.33405,-0.25756,0.15057,0.20156,0.048561,-0.002405,-0.053433,-0.18098,-0.028011,0.20155,0.25256,0.023029,0.074051,-0.18098,-0.15551,0.048598,0.02309,-0.25753,-0.15551,-0.028005,0.12499,0.20157,0.48217,0.074044,0.12508,-0.078928,-0.23197,-0.18106,0.12503,-0.002443,-0.23204,-0.41059,-0.13002,0.45666,0.25261,-0.10448,-0.002479,0.20158,-0.12998,-0.078959,-0.002467,0.023041,-0.053464,-0.078977,-0.053506,0.12505,0.12509,-0.078953,0.22702,0.25256,-0.23202,-0.30855,-0.027969,-0.002443,-0.00243,0.20161,0.12509,0.22708,0.023017,0.074013,-0.002485,-0.18103,-0.15552,0.048585,0.048543,-0.002405,0.048592,-0.078966,-0.30858,0.12504,0.5076,-0.13002,-0.027974,-0.002461,-0.12998,0.023084,0.048561,0.15056,0.099546,-0.30852,-0.23204,-0.23207,0.2781,0.09957,0.099577,0.20161,0.099577,0.074075,-0.1045,-0.51265,-0.13002,0.27808,0.38011,0.023059,-0.25749,-0.28301,-0.15545,-0.12996,0.20158,0.022998,-0.181,0.22704,0.68608,0.27809,-0.12995,-0.48703,-0.56354,-0.23199,0.12505,0.048543,0.22707,0.12504,0.17607,0.45659,0.43112,-0.35953,-0.92066,-0.20652,0.25262,0.048555,0.074075,0.20158,0.12507,0.099528,-0.15549,-0.23202,-0.002461,0.20159,0.15059,0.17604,0.099552,-0.28303,-0.41056,-0.053476,0.048536,0.1506,0.099564,0.099546,-0.079002,-0.20652,-0.027969,0.074026,-0.053482,0.1251,0.12509,0.048561,-0.002436,0.023065,-0.002485,0.12502,0.09951,-0.028005,-0.002461,-0.20651,-0.15547,-0.23199,0.35465,0.38011,-0.10445,-0.33403,-0.053482,-0.25758,-0.002491,0.15057,-0.027913,0.20156,0.074013,0.023047,0.074057,-0.027944,-0.15548,-0.15549,-0.027998,-0.46162,-0.027969,0.38017,0.50769,0.074026,-0.51262,-0.002467,-0.002443,0.048555,-0.027974,0.15051,0.099546,-0.18095,0.023072,0.17607,-0.10452,-0.20652,-0.28305,0.12507,0.25259,0.099546,-0.078996,0.023065,-0.027938,-0.002467,-0.13003,0.12505,0.074044,0.15057,0.023054,-0.05347,-0.027956,0.38012,0.30359,-0.23205,-0.35957,-0.053439,-0.10447,-0.18101,0.40563,0.20159,-0.15548,-0.053446,-0.027962,-0.28306,0.27806,0.32913,0.15055,0.048512,0.15054,-0.078984,-0.10447,-0.20647,-0.027938,-0.23201,0.3801,-0.053519,-0.38508,-0.43608,0.27812,0.38014,-0.002472,0.20159,0.0741,0.023078,0.074051,0.099534,0.022986,-0.10454,-0.10449,0.099583,-0.078928,-0.02795,-0.25751,-0.002485,0.25257,0.38005,0.099515,-0.2065,-0.18097,-0.002418,0.099588,-0.053427,0.048567,-0.15552,0.048512,0.17607,0.15058,-0.10449,-0.46165,-0.20654,0.20162,0.074111,0.04858,0.17609,0.099583,-0.33407,-0.10452,0.25258,-0.002461,0.12505,0.3036,-0.027969,-0.38503,-0.053482,-0.10447,0.048543,0.3036,0.07402,-0.13002,-0.10449,0.048573,-0.053446,-0.181,0.074057,0.22709,0.12507,-0.23205,-0.23204,0.35463,0.38008,-0.2065,-0.46153,-0.027925,0.17607,-0.053482,0.099534,-0.027969,-0.181,0.048518,-0.18103,0.023072,0.1251,-0.0535,-0.18102,0.074087,-0.12997,0.15054,0.074044,-0.1555,-0.002479,0.20155,0.17609,-0.002436,-0.12999,-0.1555,0.074075,-0.30855,-0.20654,0.02301,0.32915,0.30364,0.023103,0.048592,0.023054,-0.13001,-0.15553,0.048487,0.20153,0.099521,-0.078984,-0.027956,-0.18094,-0.10444,-0.43605,-0.33406,0.15054,0.2526,0.02301,-0.002443,0.40563,0.17604,0.023017,0.048567,-0.027956,-0.33405,-0.41057,-0.13002,0.27812,0.1251,-0.027938,-0.078977,0.074069,-0.079008,-0.078984,0.048506,0.17604,0.099564,-0.078977,-0.28305,-0.30847,0.074075,0.40559,0.023059,-0.28303,-0.078984,-0.02798,-0.02795,-0.027974,-0.002503,-0.027969,0.32915,-0.12998,-0.38506,0.099559,0.20159,0.099559,0.02301,-0.18101,0.12507,-0.078996,-0.23204,-0.10445,0.15059,0.074051,0.023047,-0.002467,-0.079002,-0.028005,0.074062,0.074062,-0.10449,-0.078928,0.1761,-0.30855,-0.33407,0.27811,0.074062,0.074069,0.20158,-0.027993,-0.20652,-0.027938,0.048549,0.074038,0.17606,0.12504,-0.2575,-0.18101,-0.027969,-0.078972,-0.12999,-0.25753,0.2016,0.048555,0.023054,0.25258,0.17604,0.048531,-0.10447,-0.10448,0.023047,-0.12998,-0.283,0.17609,0.12504,-0.00251,0.099528,-0.10445,-0.079002,-0.10456,-0.05347,0.099619,0.048585,0.22711,0.048536,-0.10449,-0.053488,-0.15551,-0.13001,0.20155,0.023035,-0.18098,-0.23202,0.15059,0.048549,-0.002461,0.12507,0.023041,-0.13001,-0.38508,-0.13001,0.35462,0.27812,0.27814,-0.079008,-0.51262,-0.15553,0.15059,0.12509,0.099577,0.12505,0.074057,0.048536,-0.28302,-0.15551,0.09957,-0.078996,-0.15552,-0.053476,0.048543,0.17607,0.43113,0.35462,-0.25752,-0.43607,-0.053482,0.15057,0.099552,0.17611,0.04858,-0.053451,-0.13002,-0.18105,-0.18099,-0.12999,0.2526,0.3036,-0.1045,-0.18097,0.25258,0.35458,0.15059,-0.20647,-0.2575,-0.41057,0.074038,0.17603,0.023035,0.048561,0.099583,-0.02795,-0.38506,-0.078977,0.023054,0.17607,0.3036,0.023041,0.048518,-0.002472,-0.027969,-0.1045,-0.053458,-0.002436,0.17609,0.09957,-0.46162,-0.35961,0.45663,0.099583,-0.053446,-0.078941,0.099613,0.048561,-0.078996,-0.028018,0.15052,-0.20653,-0.05347,-0.053446,0.15059,0.15056,0.12507,-0.002479,0.074033,-0.43605,-0.10445,-0.002454,0.12504,0.15054,0.048531,-0.18098,-0.15547,-0.027931,0.15057,0.17604,0.25256,0.023017,-0.15551,-0.10446,-0.002461,0.27808,-0.12999,-0.027944,0.048555,-0.20655,-0.12999,-0.05347,0.048536,0.25259,0.099583,-0.078972,0.074033,0.12509,0.12504,0.17604,-0.2575,-0.28302,0.02301,-0.05347,-0.05347,0.09957,-0.002472,-0.002491,0.2271,-0.027944,-0.18098,0.20155,0.15051,0.17607,-0.053458,-0.20648,-0.10445,-0.002418,-0.15549,-0.079002,-0.053506,0.099552,0.074044,-0.053458,-0.33407,-0.18105,0.40564,0.40562,0.1506,0.023072,-0.053433,-0.28303,-0.25757,-0.053531,0.20159,0.099588,0.1251,0.023041,-0.027974,0.048518,0.023035,-0.027974,0.023054,-0.1555,0.048543,0.023059,0.023059,-0.15546,-0.232,0.048543,0.22709,-0.13001,-0.053525,0.32904,0.43112,0.32915,-0.41049,-0.81864,-0.20649,0.32915,0.2526,0.20159,-0.07899,-0.053482,-0.13006,0.15057,0.099577,-0.002418,-0.078972,-0.13002,0.25255,0.074038,0.023072,-0.15549,-0.20652,-0.10448,0.22712,-0.002412,-0.18099,-0.1045,0.15055,0.30358,0.023005,-0.23205,0.12507,0.048543,-0.10446,0.023072,0.074057,0.20156,0.22707,-0.002461,-0.10449,-0.25752,-0.027987,0.12507,0.17609,0.074062,0.023047,-0.078972,-0.15549,0.02301,0.22704,0.12505,0.074087,-0.18098,-0.48707,-0.18099,0.15059,0.20156,0.048549,0.048536,-0.002467,-0.078959,0.048549,0.048549,-0.12999,0.12508,-0.078977,-0.15553,-0.12998,0.32911,0.02301,-0.002491,-0.35957,-0.23202,0.35467,0.25264,0.12509,0.099552,0.07402,-0.002497,-0.13001,-0.13,-0.078959,-0.28299,0.074044,0.12504,-0.053495,-0.027993,0.15056,0.09957,-0.053458,-0.20647,-0.053482,-0.053495,-0.053458,0.099583,0.048561,-0.2065,-0.10453,0.20155,0.15053,0.12504,-0.053439,0.17614,0.25259,-0.4361,-0.3851,0.048567,-0.002412,-0.2575,0.048531,0.12503,0.20159,-0.002443,-0.23201,-0.13001,0.17607,0.074051,0.023029,0.15053,0.099546,-0.12998,-0.10447,-0.078984,0.074111,-0.002461,-0.00251,-0.002491,-0.002436,-0.027962,0.074038,-0.10449,-0.027969,0.17607,0.2271,-0.078959,-0.25752,-0.23204,0.099559,0.22708,0.099515,0.02301,0.023059,-0.10445,-0.027938,-0.33401,0.17604,0.22705,-0.079021,0.074038,0.074044,0.048567,-0.20647,-0.28299,-0.078959,-0.078953,0.35459,0.43107,-0.053506,-0.33404,-0.053464,0.12507,0.074062,-0.053458,-0.18097,-0.027956,-0.10449,-0.027993,0.15054,0.12504,0.12505,0.12505,-0.181,-0.027944,0.074087,-0.027913,-0.46157,-0.002503,0.32907,0.099552,0.099552,0.023059,-0.078972,0.074062,-0.027962,-0.027969,0.023054,-0.027962,0.12502,-0.00251,0.074075,0.023047,-0.12999,-0.078959,-0.15545,-0.078947,0.023023,-0.002497,0.074002,0.023041,0.15059,0.22708,-0.078996,-0.46159,-0.61462,0.22711,0.2526,0.38013,0.2781,0.023035,-0.15548,-0.053476,-0.23201,-0.2575,-0.078959,-0.002461,0.048555,0.048525,0.048506,0.17603,0.074026,-0.002467,-0.20647,-0.053451,-0.078972,-0.078935,0.023059,0.15056,0.20156,0.2015,-0.053488,-0.078984,-0.12999,0.099608,-0.053464,-0.13002,-0.23199,0.55864,0.27805,-0.002472,-0.20649,-0.41051,0.023065,0.35458,0.12507,0.1251,-0.25751,-0.20655,0.17606,0.20155,-0.002454,-0.25756,-0.30853,0.048573,0.22711,0.048567,-0.027974,0.099564,-0.027956,-0.053488,0.048518,0.15058,-0.078966,-0.10449,-0.02798,0.023054,-0.078996,0.023041,0.17609,0.099546,0.12503,-0.027987,-0.12996,-0.2575,-0.053464,0.17607,0.074044,-0.1045,-0.23202,-0.078959,-0.053482,0.099534,-0.02798,0.17609,0.1251,0.023035,-0.181,-0.02798,0.15055,0.09954,-0.18098,-0.15549,-0.053482,0.074026,0.04858,0.074087,0.099564,0.023035,-0.20653,-0.13,-0.25754,-0.027987,0.2781,0.1761,0.099577,0.074044,-0.002461,0.074033,-0.10449,0.17605,0.32906,-0.181,-0.4105,-0.20647,-0.05347,-0.027969,-0.02798,0.17605,0.12506,0.15057,0.17607,0.023035,0.023041,-0.053464,-0.12998,-0.1045,-0.02795,0.023047,-0.10451,-0.13,0.099534,0.074069,-0.15549,-0.13,-0.027956,0.04861,0.32909,0.27805,-0.10449,-0.28302,-0.12998,-0.053464,0.1761,0.17607,-0.30854,-0.23204,0.048525,0.22707,0.048573,-0.053458,0.023054,0.048531,0.048531,0.15054,0.099564,0.048585,-0.18098,-0.25753,0.048531,0.15056,-0.002467,-0.15548,0.023059,0.20158,0.22708,-0.30855,-0.30855,0.22712,0.30363,-0.027969,-0.18103,0.12504,0.074087,-0.18097,-0.181,-0.20652,-0.15549,0.074044,0.17605,0.09954,0.048512,0.048543,0.074062,-0.053451,-0.12996,0.15057,0.27806,-0.13001,-0.25753,-0.334,0.15057,0.3801,-0.02795,-0.12999,-0.027962,0.023065,-0.10447,0.048536,0.048549,-0.3596,-0.23209,0.15056,0.17609,0.1506,-0.027944,-0.12996,-0.15548,-0.027956,0.099534,0.099528,0.0485,-0.078996,-0.053488,0.023059,-0.002443,-0.10449,-0.002454,-0.002461,-0.56361,0.023054,0.074057,0.17606,0.20159,0.20159,0.074069,-0.078972,-0.1045,0.074026,0.27805,0.074038,-0.28303,-0.20649,-0.18102,-0.38503,0.20161,0.22712,0.074062,0.099546,-0.002485,-0.02798,0.15056,0.25257,-0.027993,-0.25756,-0.053446,0.048598,-0.12996,-0.002479,0.074026,0.074038,-0.10447,0.09954,0.048536,0.048549,0.023041,0.074051,-0.07899,0.023047,-0.078996,-0.15548,-0.181,-0.20651,0.27815,-0.002454,-0.33409,-0.23205,0.35463,0.17609,-0.027993,0.12506,-0.002461,0.048561,-0.027962,-0.053482,-0.05347,-0.002436,-0.181,-0.027969,-0.13001,-0.30853,0.20154,0.30358,0.023029,-0.2575,0.15058,-0.002418,0.099564,0.074038,0.25257,0.20153,-0.10448,-0.20649,-0.15548,-0.12999,-0.002448,0.023054,-0.002461,-0.00251,-0.053495,0.12507,0.073995,-0.23205,0.17609,0.12512,0.20162,-0.15548,-0.2575,0.023065,0.023029,0.12502,0.074002,0.074038,-0.027969,-0.053458,-0.10444,-0.10448,-0.002479,0.074057,0.20156,-0.07899,0.023023,-0.078996,-0.15548,-0.00243,0.048567,0.023047,0.15054,0.048536,-0.13001,-0.20652,0.09954,0.32905,0.074057,-0.078947,-0.078935,-0.28294,-0.07899,0.15048,-0.002479,-0.12998,-0.12998,0.15055,0.099552,0.17607,-0.10444,-0.078966,0.023047,-0.15551,-0.027962,-0.20651,-0.002472,-0.027974,0.023035,0.3291,-0.027956,-0.23201,-0.10449,0.17606,0.074069,-0.05347,0.048531,-0.02798,-0.12999,-0.12998,-0.078959,-0.078947,0.048567,0.12503,0.09954,0.15056,0.074038,-0.078984,0.099521,0.22708,0.12507,-0.33402,-0.23201,0.17607,0.074051,0.048567,0.048543,-0.027962,0.09954,0.15056,0.04858,-0.027944,-0.23204,-0.20656,0.023047,0.048531,0.27812,-0.10446,-0.18101,0.15056,0.048567,0.099552,0.023041,-0.027969,-0.12998,-0.053476,-0.078996,-0.002485,-0.002479,-0.079002,0.048585,0.074075,0.023029,0.023035,0.15059,-0.027969,0.073995,0.023005,0.074062,0.023084,0.048567,-0.15548,0.12508,-0.079008,-0.25754,-0.20652,0.15056,0.38009,0.12507,-0.002443,0.023054,0.12507,0.023059,-0.15548,-0.25753,-0.15554,0.15053,0.074051,0.04858,-0.181,0.074057,0.15058,0.2271,-0.20651,-0.12999,0.023023,0.09954,-0.027962,-0.002448,-0.002454,-0.002485,0.048549,0.023072,-0.053476,0.073989,0.15056,0.074062,-0.28303,-0.23199,0.023059,0.17609,-0.12996,-0.027974,0.48211,0.17604,0.099534,-0.028011,-0.10445,-0.10444,-0.23203,-0.1555,0.17607,0.12505,0.12506,-0.027969,-0.1045,-0.053482,-0.078972,0.074057,0.074075,-0.078972,0.023047,0.099583,0.15056,0.022998,-0.18102,-0.002467,-0.053458,0.12506,-0.078984,0.099552,-0.002443,0.048573,-0.15549,-0.28302,-0.053482,0.20157,0.048549,-0.33406,-0.002472,0.27811,0.023059,-0.10449,-0.002485,0.15057,-0.002461,-0.002454,0.048543,-0.002467,0.074051,-0.232,-0.18102,-0.15549,0.12509,0.15058,-0.10453,-0.23204,0.09957,0.048567,-0.002467,0.048573,-0.027944,0.20154,0.099552,-0.13,-0.028005,-0.002479,-0.13001,-0.002467,0.12508,0.023096,-0.078935,-0.05347,-0.13,0.099546,0.023029,0.074051,0.12504,-0.027969,-0.12996,-0.078984,0.074038,0.27809,0.22707,-0.027956,-0.12998,-0.20652,0.048561,-0.10447,-0.20652,-0.13,0.074069,0.15058,0.15059,0.17609,-0.10452,-0.23204,0.12506,0.17609,-0.18101,-0.25753,0.12508,0.074075,-0.002467,-0.002454,0.074038,-0.027974,-0.078966,-0.13002,-0.053458,0.074087,-0.053433,0.074062,-0.1045,-0.20654,-0.053488,0.17606,0.15055,0.17607,0.048585,0.023059,0.023029,0.099528,0.15054,-0.00243,-0.12999,-0.33405,-0.10452,0.22709,0.2526,0.12509,-0.181,0.099564,0.15054,-0.10452,-0.20652,0.074051,0.074038,-0.002461,0.099559,0.048573,-0.1555,-0.10447,-0.13001,-0.078959,0.099546,0.022998,0.048525,-0.002467,0.15059,-0.12999,-0.078972,0.17604,0.15056,0.099564,-0.027956,-0.1045,-0.18099,0.15061,-0.12998,-0.20652,-0.10447,0.099577,0.17604,0.099546,-0.002479,0.074008,-0.002454,0.023047,-0.20652,-0.28303,0.12509,0.048549,0.023047,0.023047,0.12505,-0.15551,-0.07899,-0.027993,0.32908,0.17607,-0.2575,-0.232,0.099588,-0.12998,-0.18101,-0.053482,0.074038,0.074062,0.099564,0.023065,-0.053476,-0.027987,0.048518,0.048518,0.048536,0.099564,-0.078984,0.12505,0.09957,-0.10447,-0.23197,-0.15548,-0.002461,0.12505,0.22707,-0.10449,-0.07899,-0.027969,0.048543,0.023059,-0.027944,-0.02798,-0.00251,-0.053488,0.099588,0.023041,-0.053488,-0.15551,-0.28302,0.30361,0.15057,0.15059,-0.027956,-0.10452,-0.15551,0.12505,0.074057,-0.027969,-0.053458,0.09957,-0.002467,0.099559,0.099546,0.048567,-0.028005,-0.23205,0.02301,0.20162,-0.053439,-0.181,-0.027969,-0.078953,0.023035,0.048512,0.12503,0.099546,-0.05347,-0.053476,-0.02798,0.099559,0.074075,-0.12997,-0.079002,0.074038,-0.002461,-0.05347,-0.25753,0.023041,-0.002443,0.074075,0.09957,0.25257,0.12503,-0.053476,-0.027987,-0.027969,-0.12998,-0.027962,0.099552,0.023059,0.12509,0.099528,-0.18103,0.074062,-0.13,-0.10453,0.074044,0.17609,0.099564,0.074051,-0.078947,0.074075,0.048561,-0.25754,-0.15554,0.074051,0.099546,-0.053458,-0.002436,0.023065,0.17606,-0.002461,0.074062,0.20154,-0.079002,-0.35954,-0.1045,0.12507,0.17609,-0.002448,-0.002448,0.023047,0.12507,-0.15551,-0.079002,0.023035,0.048549,0.074062,0.048549,0.048549,-0.1555,-0.05347,0.074057,0.023065,0.17608,-0.15555,-0.41058,-0.002472,0.27811,0.17607,0.099588,-0.078928,-0.027956,-0.15549,0.023035,0.07402,-0.002485,-0.027956,-0.02795,0.023047,-0.002467,0.17609,0.074062,-0.027993,0.38003,0.15053,-0.10445,-0.15546,-0.20648,-0.35951,-0.12995,0.15059,0.25257,-0.002485,0.023023,0.023041,0.22707,0.20158,-0.35957,-0.56362,0.074087,0.38016,0.09954,0.20155,0.12504,0.07402,-0.12998,-0.002467,-0.232,-0.18098,0.17608,0.099564,-0.053482,0.12505,-0.23201,-0.38507,-0.10453,0.25259,0.38013,0.12509,0.048561,-0.12996,-0.053488,-0.028005,-0.079002,-0.053495,0.023035,0.048567,-0.05347,-0.12996,-0.053464,-0.028018,-0.053513,-0.002436,0.22707,0.20158,-0.002443,-0.181,-0.07899,0.22707,-0.027956,-0.027944,0.074038,0.023047,-0.18098,-0.53811,-0.002479,0.20158,0.30363,0.15059,0.074062,0.048561,-0.078966,-0.15553,-0.002521,-0.078984,-0.053476,0.048536,-0.027944,-0.002443,0.023054,0.04858,-0.13001,-0.13002,0.074044,0.15057,-0.0535,-0.181,-0.053458,0.15059,0.25259,-0.10445,-0.078977,-0.15553,-0.053482,0.048518,-0.002467,0.048531,0.22707,0.15058,-0.12995,-0.18098,-0.13002,-0.25753,-0.053482,-0.027993,0.20159,0.17609,-0.027987,-0.053488,0.1251,0.099564,-0.053488,-0.20653,-0.002443,0.17604,0.12507,-0.10447,-0.078966,-0.078972,0.15056,0.074044,-0.10445,-0.078972,-0.20653,-0.20656,0.023047,0.30363,0.17608,0.12505,0.023047,-0.12998,-0.027938,-0.002467,0.074013,-0.079026,0.022992,-0.078984,0.023096,0.023078,0.12507,-0.002472,-0.053476,0.023047,-0.027993,-0.18103,-0.027974,-0.002461,0.12507,0.074062,0.2271,0.023041,0.12507,-0.30855,-0.079008,0.023041,0.12507,-0.027956,-0.15547,-0.078966,0.15056,-0.027962,0.15054,0.32909,-0.027956,-0.1045,-0.28308,0.048512,0.20159,-0.10445,-0.18095,0.2016,0.17609,-0.027987,-0.181,-0.07899,0.48211,0.22705,-0.25754,-0.38503,-0.078923,-0.027944,0.048561,0.12509,-0.07899,-0.10453,0.22705,0.12503,-0.05347,0.074062,-0.002443,-0.078977,0.074038,-0.078972,-0.18097,-0.18099,0.074033,0.074033,0.074062,0.023047,-0.10449,-0.078984,0.023029,0.023029,0.023035,0.074044,-0.15551,-0.027987,-0.13,0.17608,0.1506,0.074075,-0.002472,-0.027993,0.099534,0.099552,-0.28303,-0.002472,0.023035,0.099559,0.09957,0.12509,0.023054,0.074062,-0.30856,-0.20655,-0.002479,0.20159,-0.002443,0.023054,0.30359,0.07402,0.048525,-0.12996,0.023047,-0.02798,-0.002461,-0.002448,-0.078972,-0.002461,-0.002467,0.023035,-0.078977,0.048549,0.074038,-0.002491,-0.20652,0.048555,-0.027962,0.023054,0.09957,0.099577,-0.027956,-0.002448,0.048543,-0.002485,0.12503,0.12504,0.09954,-0.10449,-0.002448,-0.002448,-0.12995,-0.053482,0.048525,-0.10451,-0.078996,-0.02798,0.12503,0.17609,-0.002412,-0.053464,0.099559,-0.027956,-0.10447,-0.053488,-0.027987,-0.002479,-0.078972,-0.002443,0.09954,-0.053482,-0.053476,0.048567,-0.10446,0.22705,0.25252,-0.13001,-0.078935,0.023103,-0.027956,-0.027956,-0.2065,0.023054,0.12504,0.09951,-0.028005,0.074051,-0.002443,-0.25749,-0.28298,-0.002436,0.074038,0.09954,-0.002497,0.02301,0.074051,0.17607,0.048543,-0.078947,0.023054,-0.15551,-0.078984,-0.18098,-0.10449,0.17606,0.12505,0.20155,0.17604,-0.13,-0.15548,0.099577,0.023054,-0.10446,-0.078972,0.048518,-0.053519,-0.079002,0.048518,-0.10449,0.1506,0.17608,0.048561,-0.10447,-0.078977,-0.078984,-0.078996,-0.053476,0.023059,0.023059,0.023047,0.12503,0.12504,-0.078984,-0.1555,-0.00243,-0.13002,-0.002467,-0.1045,-0.05347,0.17611,0.22713,0.099552,-0.15551,-0.13,-0.027987,-0.13002,-0.002485,0.15057,0.074075,-0.15548,-0.23202,0.15057,0.22707,0.099559,-0.078977,-0.078972,0.023029,0.15056,0.12509,-0.15548,-0.2065,0.074051,-0.07899,-0.002485,-0.078984,0.20156,0.15056,-0.027969,-0.12998,-0.10449,0.074057,0.099559,0.023041,-0.053476,-0.027969,-0.002491,-0.002467,-0.053451,-0.2065,-0.23201,0.048555,0.12508,0.12507,0.074026,0.25256,0.15056,-0.078984,-0.18101,-0.18101,-0.078923,-0.10444,-0.002461,0.074013,0.12502,0.12503,-0.027956,-0.15548,-0.078984,-0.027962,0.023065,-0.10448,-0.002472,0.09954,-0.053476,0.12502,0.15056,0.074062,-0.053451,-0.02795,-0.078972,-0.027956,-0.15551,-0.078966,-0.027974,-0.027969,0.074026,0.20155,0.20159,0.1251,-0.10447,-0.25753,0.09954,-0.053506,-0.028018,-0.15549,-0.053427,-0.053451,0.099564,0.15059,0.023065,-0.002454,-0.18103,-0.028018,0.20152,0.15055,-0.078984,0.048549,-0.078972,0.023059,-0.027925,-0.10446,-0.15551,-0.079008,-0.027987,0.22708,0.09957,-0.053482,-0.10447,0.023059,0.023047,-0.10449,-0.053519,0.15056,0.17607,-0.13,-0.181,-0.053451,0.023047,0.20155,0.074087,-0.078947,-0.053482,-0.23203,-0.078984,0.12505,-0.053476,0.15057,0.15054,0.048555,0.099613,-0.28301,-0.10452,0.12505,-0.05347,-0.02798,-0.053464,0.12505,-0.027987,-0.053451,-0.002454,0.074057,-0.027962,-0.027962,-0.002479,-0.002467,-0.18103,0.17607,0.22711,0.22707,-0.1045,-0.23201,0.023078,0.023035,-0.027969,0.074026,0.074038,0.099546,-0.078959,-0.18098,-0.12998,-0.053476,0.17605,0.099534,0.15055,0.099546,-0.053451,-0.15548,-0.33405,0.099552,0.12507,-0.053451,-0.053464,0.17606,0.048512,-0.027987,0.074051,-0.053476,-0.053513,0.023047,-0.078959,-0.053458,0.17609,-0.23202,-0.43608,0.30353,0.35461,0.09957,-0.18097,-0.23198,-0.15546,-0.02795,0.12504,0.12504,0.20154,0.074044,-0.1045,-0.15549,-0.027962,-0.027931,0.074075,0.074038,-0.079008,-0.15553,0.074057,-0.02798,-0.15551,0.074075,0.074081,0.074057,-0.00243,0.074075,-0.079002,-0.027987,0.074013,0.15053,0.12505,-0.078972,-0.35956,0.048561,0.04858,-0.078959,0.023023,-0.078977,0.099546,-0.002497,-0.027974,-0.027956,0.074057,-0.12999,-0.02792,0.15059,0.099521,-0.13002,0.023029,0.023041,0.048536,0.023065,-0.07899,-0.053446,-0.053421,0.15054,0.022992,-0.078996,-0.33407,0.22707,0.048567,0.099595,0.12508,0.12506,-0.078947,-0.15548,-0.078996,0.074026,-0.002485,-0.10452,-0.1045,0.17606,0.17607,-0.002436,-0.053464,-0.25751,-0.027956,-0.12997,0.048531,0.048506,0.09954,0.023047,-0.12998,0.023041,0.074051,-0.053495,0.048555,-0.12999,-0.053482,0.074038,0.099552,0.048549,-0.002472,-0.10449,0.099559,-0.002454,-0.1045,-0.25752,0.12509,0.12508,0.074051,-0.10449,-0.079014,0.09957,-0.053421,0.20157,0.25253,0.074013,-0.027969,-0.10451,-0.15549,-0.10446,-0.10445,-0.12994,-0.10447,0.074044,0.099546,-0.12999,0.023035,0.32903,0.20154,0.048555,-0.15548,-0.10447,-0.00243,-0.078953,0.023035,0.15054,-0.053476,-0.28306,-0.027956,0.074057,-0.002491,0.25258,0.17611,-0.053464,-0.13,0.023035,0.09954,-0.002461,-0.078996,-0.1555,-0.053451,0.023065,-0.002448,-0.002467,-0.079002,0.048536,-0.053495,0.15055,0.12503,0.074062,0.074062,0.17607,0.17607,-0.078977,-0.15548,-0.25748,-0.10447,-0.002485,0.45656,0.099521,-0.18099,-0.25748,-0.20644,-0.20649,0.048536,0.074002,0.35458,0.27806,-0.18101,-0.20652,0.048585,0.17609,0.099583,-0.25754,-0.0535,-0.027974,0.074044,0.074081,0.048536,-0.027987,0.074057,-0.027969
