-0.23201,0.35456,0.023017,-0.30852,0.023047,0.15057,-0.05347,0.12509,0.15057,-0.053464,-0.2065,-0.002485,0.30355,-0.002485,-0.1555,0.023035,0.20157,0.099583,0.1251,-0.35954,-0.283,0.12507,0.15054,-0.027987,0.074051,0.099552,0.023065,0.074069,-0.053476,-0.181,0.023059,0.048549,0.048506,-0.053488,0.15054,0.099534,0.048555,0.12509,-0.053464,-0.15548,-0.078972,-0.1045,-0.078996,-0.078996,0.02301,-0.002467,0.12507,0.20159,0.023065,-0.12998,-0.027962,0.099546,-0.027987,-0.053488,0.074038,0.074051,0.048536,-0.12997,0.27808,-0.10447,-0.28298,-0.10446,-0.002491,0.099546,0.074044,0.15055,-0.078966,-0.078972,-0.027962,-0.027969,0.023054,-0.07899,-0.002485,0.048536,-0.002491,-0.07899,0.048573,0.023054,0.2526,-0.002436,-0.2065,-0.23202,0.17605,0.20156,0.074044,0.099552,-0.053488,0.12505,-0.053451,-0.48701,-0.41054,-0.02798,0.12504,-0.28305,0.023017,0.30357,0.2271,0.099559,-0.10449,0.099564,-0.078959,0.12508,0.15056,-0.078984,-0.002479,-0.20652,0.048543,0.074075,-0.027956,-0.12998,-0.10445,-0.33405,-0.10454,0.48214,-0.002485,0.023023,0.35461,0.45666,0.048567,-0.3085,-0.43604,-0.46159,-0.3596,-0.053537,0.12502,0.50771,0.53318,0.55875,0.68622,-0.38495,-0.69106,-0.51261,-0.76775,-0.84426,-0.3086,0.5076,0.25257,0.32915,0.63524,0.86479,0.68622,-0.43598,-0.51257,0.12507,0.4566,-0.46159,-0.81874,-0.61467,-0.2321,-0.20646,0.27825,0.6862,1.7065,0.63522,-0.30854,-0.61467,-0.56362,0.3035,-0.10452,-1.1757,-0.66558,0.63509,0.68629,-0.20656,-0.71674,-1.3799,1.5535,2.3953,-0.35942,0.50774,1.4005,-0.51263,-0.97188,-0.97184,-0.79343,-1.0994,0.17608,-0.38494,-0.89499,0.074167,1.273,-0.46145,-0.18094,1.9615,2.0124,0.83913,-2.6042,-1.7879,0.12503,0.94148,0.99239,0.94107,-0.23207,-0.58916,-0.56359,-0.30868,-0.28305,-1.2522,-1.2012,-0.20646,0.32925,1.0434,1.8085,0.8393,-0.43612,-2.0431,-0.94626,3.6195,3.5175,0.45662,-1.9665,-2.8592,-3.1399,-1.1757,1.0178,0.22704,0.99224,1.936,1.1965,-1.0227,-0.69103,-0.25746,-0.97168,-0.38513,2.0891,1.834,1.3748,-1.0484,-2.0176,-1.2523,-0.027956,-0.2575,0.17619,0.76287,1.4514,0.12501,-0.053531,-0.58917,-0.027987,-0.10439,-0.30846,-0.12995,-0.181,-1.0738,-0.86983,0.32912,2.1911,2.5228,0.94127,-1.2268,-1.4307,-0.9462,-0.43616,-0.028029,0.022974,0.30361,1.0434,-0.94612,-0.99713,-0.58911,1.7831,1.7065,-0.3341,-0.10452,-0.002399,-0.33421,-1.1249,-0.89507,-0.053409,1.5278,1.7319,0.15066,-0.79305,-1.6349,-0.84429,-0.61474,0.94128,2.0381,-0.20634,-1.2266,-1.0737,-0.61463,-0.18106,0.78813,1.4513,1.5533,0.30361,-0.79313,-0.61463,-0.33411,-0.15543,0.63524,0.55867,-1.0482,-0.8697,0.20159,1.2473,0.27814,-0.97171,-1.1758,-0.41061,0.12498,-0.33409,2.3442,1.2475,-0.15543,-0.84411,-0.51261,-1.1504,-0.8953,0.81371,1.9614,1.5279,-0.00232,0.074179,-1.7369,-1.839,-0.10456,1.0687,-0.53805,-0.30851,0.073965,0.30363,0.27815,1.5025,0.27808,-0.30852,0.40566,0.38017,-1.4564,-1.7624,-0.8443,2.6756,1.7576,0.1507,-1.0738,-1.5329,-0.35967,-0.35957,0.20148,2.1911,1.069,-1.2012,-1.3288,-0.84419,-0.2066,-0.51265,0.3291,0.94132,2.4716,1.4514,-1.2268,-2.0941,-1.5075,-0.28314,1.4514,3.3645,2.1913,-1.3796,-1.9664,-2.9867,-2.6298,0.099442,0.81362,0.58417,1.5789,0.73728,0.43125,0.12512,1.2475,-0.56365,-1.4819,-0.71673,-0.43617,0.32917,1.6045,1.3239,-0.92067,-0.18103,0.38011,-0.61474,-0.33411,-0.48706,-0.86955,-0.56351,0.73724,1.2727,0.63504,0.15052,-0.23192,-0.79294,0.04858,0.58413,-0.56359,-1.1758,-0.86977,0.073984,1.3239,1.5789,1.4003,-0.28294,-0.7676,-0.2065,-0.3851,-1.3289,-1.3798,0.20161,0.9923,0.96683,0.66077,-0.38503,0.20157,0.30354,-0.94622,-0.99717,-0.56364,1.0943,0.04858,-0.84412,0.27805,2.4972,1.2985,0.22717,-1.482,-2.3492,-0.51262,-0.12998,1.426,0.32918,-0.027834,-0.002418,-0.74214,-0.6148,-0.053714,-0.079155,0.27805,1.0689,0.81395,-0.12988,-0.51265,-0.20652,0.099577,-0.12997,0.45666,2.5227,0.71171,-1.0228,-1.7369,-1.1757,-0.028029,-0.53823,-1.0483,1.5281,2.1402,-0.92071,-1.2013,-0.58921,0.099454,1.2983,1.6809,0.86486,-0.76755,0.048585,-0.079057,-1.2014,-1.6094,-0.07899,1.4003,-0.30856,-0.94611,-0.33396,-0.56354,-0.51259,0.83921,2.1655,1.3494,-0.12991,-0.33398,-0.30859,-0.18101,-0.15545,-0.53808,-0.41054,-0.89529,-0.3087,-0.46157,1.63,2.4717,1.426,-1.0226,-1.737,-1.533,0.20148,1.2474,-0.15548,-0.84426,-0.53815,-0.4105,-0.20832,0.27621,0.73717,0.99235,-0.027907,-0.35955,0.50752,-0.079204,0.94112,0.91588,0.20187,-0.46141,-1.0226,-0.43609,0.073898,-0.69129,-0.02809,0.35457,-0.15541,0.68625,1.0178,0.58424,-0.89525,-1.4819,-0.20653,1.4514,-0.13,-0.56362,-0.51267,1.2984,1.2472,0.227,-0.84408,-0.18081,0.43134,-0.84412,-0.5382,-0.41067,-0.69123,-0.53814,-0.13003,0.27809,1.7576,1.681,0.099577,-1.4563,-0.66569,0.53301,-0.3852,-0.71668,1.4261,3.6964,-0.43594,-0.81868,-1.9921,-1.3801,-0.92097,-0.15569,-0.66558,-0.41049,0.73733,0.89036,1.6556,1.0943,0.25244,-1.0482,-0.46154,0.38027,0.5842,-0.33415,-0.18106,0.023114,-0.33396,-0.10451,-0.20647,-0.53817,-0.13009,0.073971,-0.079026,0.0741,0.074087,1.0179,-0.41047,-0.38501,0.53309,-0.41057,-1.4054,0.20155,0.27809,0.48218,1.6301,-0.053464,-1.3033,-1.0993,0.073965,-0.28317,0.43111,0.60962,-0.25737,0.12526,0.83922,0.94134,-0.30854,-0.61463,-0.81871,-1.0737,0.38002,-0.027962,-0.027987,0.048482,0.023035,0.63524,0.53329,0.099644,0.38011,-1.1248,0.15052,1.6045,0.86477,-1.0738,-1.8135,-1.6349,0.17611,1.8594,0.50757,-0.20652,-0.56358,0.17602,-0.25753,-0.51244,0.30376,0.30374,1.0944,0.81378,-0.10453,0.048585,-0.38511,-0.71684,-0.84431,-0.79322,-0.81871,0.35464,0.76287,5.0225,1.7829,-1.8645,-2.8846,-2.043,-1.1248,0.35461,0.43111,-0.1044,0.074124,0.048567,1.2218,1.1453,-0.12999,0.3546,0.35461,-0.53817,-0.38509,-0.079039,0.4312,0.35474,0.86485,-0.41059,-1.7115,-0.86981,-0.71676,-0.053451,0.25272,1.273,0.53334,0.7883,0.022986,-0.35961,-0.56371,-1.0738,-0.61455,-0.41052,-0.51267,0.83923,1.5024,0.55873,0.40566,0.22704,-0.30869,0.25257,-0.027889,-0.10445,-1.1246,-0.10458,-0.30854,-0.41054,-0.053519,0.20155,0.71178,1.4259,0.074075,-0.81871,-0.58914,0.15051,0.27809,-0.23205,-0.53807,0.048653,1.0178,0.71174,-0.41057,-0.43607,-0.66566,-0.76761,-0.10446,-1.0228,-1.2013,0.78825,3.696,3.0074,0.27812,-1.7624,-1.7625,-1.2778,-0.74219,-0.5127,-0.64013,0.60971,1.2219,0.58422,-0.58902,-0.053427,-0.027889,-0.079155,-0.53821,-0.81862,0.91593,2.2931,-0.079026,-0.46169,0.30362,-0.76766,-0.74212,-0.20652,-0.92064,-1.2777,-0.46154,0.55867,0.99234,1.1961,0.099485,1.2985,0.40572,-0.81876,-0.18106,-0.71665,-0.71666,-0.6146,0.20158,0.55866,-0.23194,-0.20647,0.023035,0.55864,0.48213,0.074062,-0.28302,-0.35962,0.25256,1.2984,-0.002454,-0.35961,-0.66561,-0.71663,-0.3595,-0.25745,0.074111,0.20149,-0.23215,0.81359,1.8848,-0.15523,0.22708,-0.002485,-1.3287,-1.1757,1.2984,0.50769,-0.18109,-0.61467,-0.13001,0.09957,-0.053519,-0.3086,0.32908,0.94127,0.25263,-0.92065,-0.41061,1.1454,0.27818,-0.18101,-0.46162,-0.028066,0.17594,-0.10454,-0.053378,0.023084,-0.46154,-0.053451,-0.33402,-0.028066,0.45658,1.1965,0.91583,-0.79318,-0.35953,-0.13002,0.66069,0.2526,-0.76767,-1.6349,-0.71671,0.73707,-0.002405,-0.027895,-0.10439,0.099608,0.76269,0.89026,-0.20645,0.32909,0.023041,-0.385,-1.0992,-0.66553,0.15046,1.5788,0.66064,-0.69116,-0.43612,-0.53821,-0.181,-0.28295,0.66088,0.099662,-0.002516,0.22699,-0.33415,0.55869,-0.51254,-0.18097,1.0432,0.86469,0.58414,-1.4563,-1.0737,-0.33401,-0.33401,-0.35951,1.0179,0.73734,0.45651,-0.23222,-0.76781,1.8852,1.4771,-0.283,-1.4309,-1.5839,-1.3544,-0.25759,-0.15543,0.2781,0.83916,0.30368,0.55871,0.25253,-0.002418,-0.02792,0.20158,0.55866,-0.20652,-0.51252,-0.078972,0.023103,0.60975,-0.20655,-0.43616,-0.38515,-0.51262,-0.13007,-0.13012,-0.25754,0.5843,0.58425,1.0689,-0.38493,0.94139,0.94131,0.17597,-1.0739,-2.1196,-1.4309,-0.02798,-0.053409,-0.23193,0.73718,1.9614,0.48219,-0.20636,-0.81844,0.30358,1.3493,0.50768,-0.79312,-0.94614,-0.30851,0.53312,1.2474,0.30356,-1.2778,-1.5585,-0.3851,0.12508,-0.18095,0.53314,0.96678,-0.28302,0.32915,0.048567,-0.79324,0.5077,0.55873,-0.66563,-0.18106,0.20154,-0.027931,-0.10448,0.17607,0.43109,1.0688,-0.18103,-0.5636,-0.33404,-0.61468,-0.92049,0.58422,0.63516,0.38006,-0.43609,-0.53812,-0.079045,0.48206,-0.13002,-0.6146,-0.078959,1.1709,1.1965,-0.69115,-0.5637,-0.43611,-0.002472,0.89034,-0.078947,-0.51267,-0.41063,-0.15545,-0.20653,-0.20649,0.2526,-0.28303,0.074038,0.27814,0.15062,0.25257,0.50762,-0.002418,0.048629,0.25259,-0.74214,-1.3288,-0.43624,0.89021,1.5025,-0.027871,-0.48713,-0.35964,-0.56359,-0.18097,0.12505,-0.89507,1.6552,1.0177,-0.61458,-1.1501,-0.58905,0.048616,-0.10443,0.17602,0.81363,0.83925,-0.43601,-0.25748,0.43118,-0.35957,-0.1046,0.073946,-0.002521,-0.33402,-0.33409,-0.25762,0.55881,1.12,0.099735,-0.76757,-1.0227,-0.81873,-0.25762,0.30349,-0.0535,0.53318,0.89023,0.7117,0.43115,-0.28296,-0.002394,-0.10451,-0.30856,0.074081,-0.74212,-1.0227,-0.23204,0.78838,2.1144,-0.38517,-1.4052,-1.4053,1.4515,0.48219,-0.84421,-0.86969,-0.41058,0.55867,0.55861,0.60973,0.55871,-0.38508,-0.48713,-0.61458,0.22707,0.35462,-0.053421,0.12505,0.76272,0.73726,-0.33404,-1.2012,-0.46163,-0.7422,-0.28301,0.48214,0.86478,0.22717,-0.13002,0.2525,-0.61465,-0.33403,0.30363,-0.20649,-0.1045,0.32909,-0.07891,0.43113,0.099637,-0.25757,-0.15563,-0.81869,0.17611,0.68623,1.477,0.53321,-1.2523,-1.1504,-0.46159,0.25268,0.12512,-0.002436,0.073989,0.40553,0.074038,-0.30851,-0.18098,0.1506,0.86474,0.48224,0.22719,0.40557,-0.4106,-0.4361,-0.41066,-0.25754,-0.078984,-0.23199,-0.10438,-0.41054,0.81373,0.32913,0.55866,-0.028114,-0.23212,-0.38512,0.04861,0.58428,-0.18097,-0.81868,0.20154,-0.53801,0.83906,0.27799,0.22723,0.91595,0.22704,-0.79313,-0.43602,0.17619,0.25256,-0.81873,-0.48716,-0.079124,-0.41062,-0.078959,0.38011,-0.30838,0.96674,0.53312,-0.12994,0.15065,0.048567,0.074038,-0.28305,-0.30856,-0.23205,-0.078935,-0.078935,-0.0535,0.048543,0.099546,-0.053488,-0.053495,0.20153,-0.002521,-0.181,0.38013,0.35462,-0.20648,0.023078,-0.23204,-0.15551,0.76273,-1.1247,-0.30862,0.71166,0.12509,0.099595,0.38012,-0.48705,-0.1555,0.25251,0.30352,0.38013,-0.28298,-0.3595,0.73729,-0.02792,-0.33409,-0.46164,-0.12994,-0.30849,-0.0535,0.048512,1.3493,0.22707,-0.97164,-1.0737,-0.61462,0.023023,0.60968,0.86473,0.96676,0.25249,-0.43608,-0.9461,0.023047,0.17608,-0.15548,-0.15546,-0.30855,0.20153,0.22704,1.1964,1.0178,-0.51256,-0.97166,-0.079045,0.12493,-1.1248,-0.79326,-0.027907,0.15066,0.48228,-0.053439,-0.56357,0.55856,0.60966,-0.002436,-0.002461,0.22706,0.48213,0.02298,-0.61452,-0.053372,-0.078917,-0.15556,-0.56369,-0.35962,0.71159,-0.71666,1.1199,0.25267,-0.13,-0.61468,-0.13002,0.099552,0.099564,-0.10442,0.43117,0.50769,-0.58903,-0.61463,-0.43612,0.27801,0.53311,0.63523,0.5842,0.17609,-0.5125,-0.7166,-0.61458,-0.35962,0.63514,0.48215,0.074118,-0.053495,-0.41056,-0.181,0.30362,0.15054,-0.2065,0.048438,-0.053519,-0.15546,-0.078928,0.20162,0.25259,-0.43596,-0.053397,0.22701,0.074062,0.35465,0.38004,-0.92072,-0.51249,0.099564,0.73722,-0.35959,-0.64023,0.023059,1.2729,0.68622,-0.25754,-1.0228,-0.86976,1.0178,0.58422,-0.46145,-0.43596,-0.84408,0.073965,0.76258,0.27798,-0.20649,-0.41048,0.023103,0.25268,0.2016,0.30356,-0.25751,0.60959,0.25251,-0.46161,0.25258,0.32906,-0.30847,-0.28294,-0.33404,-0.64014,-0.58913,-0.15548,-0.25754,1.0431,0.60965,0.30373,0.55881,0.22713,-0.51257,-0.4361,-0.23201,-0.64007,-0.35959,0.099534,0.68615,0.83913,0.76261,-0.43604,-0.89515,1.1454,0.38022,-0.48714,-0.64019,-0.41058,-0.33401,0.22719,0.5332,-0.10445,-0.1555,-0.76767,-0.94622,0.30349,1.4257,1.5536,0.048629,-0.41054,-0.58917,-0.51257,-0.51255,0.048482,0.048518,-0.10452,-0.10445,1.5281,1.2218,-0.20648,-0.86965,-0.94625,-0.69124,-1.3798,-0.07913,0.86464,1.0689,0.78835,-0.1554,-0.6656,-0.5381,-0.20655,-0.002521,0.099503,0.76256,0.58421,0.60978,0.22716,-0.002479,-0.46163,-1.0737,-0.74204,-0.23204,-0.02795,-0.28306,0.3036,0.78821,0.35465,-0.33401,-0.23204,-0.053549,0.50757,0.15059,-0.15545,0.94125,-0.25746,-0.74214,-1.0737,-0.4871,-0.30858,0.048543,1.7321,1.2729,-0.23203,0.074069,-0.89528,-1.3034,-0.66567,-0.13,0.15062,0.30361,0.73725,1.426,0.76267,0.073984,-0.002552,-0.74204,-1.1246,-0.53803,-0.002497,0.022992,0.20155,0.35462,-0.002436,-0.35952,0.15049,0.6861,0.30367,-0.41051,-0.28302,0.45659,-0.38509,-0.18108,0.20157,-0.027907,0.30374,1.1709,0.86478,-0.7167,-1.2523,-0.84422,-0.48712,-0.15551,-0.48707,0.78825,1.1453,0.20159,-0.25746,-0.28305,0.30358,0.45661,-0.027969,-0.002461,-0.35953,-0.33405,0.048561,-0.002454,0.58419,0.86476,0.12507,-0.69116,-0.76768,-0.97169,-0.33407,-0.053476,0.40573,-0.33404,0.30355,0.12504,0.83927,1.6298,-0.10447,-0.69105,-0.76748,-0.10452,1.0431,-0.028096,-0.7422,-0.89516,0.048634,1.9616,0.1762,-0.64006,-0.69115,-0.10451,0.04861,-0.51263,-0.25767,0.22689,0.35455,-0.078892,-0.12994,-0.053439,0.22719,0.81385,0.53323,0.25251,-0.053568,-0.41061,-0.92069,-0.48709,-0.1555,0.048555,0.1506,0.43113,-0.1045,-0.2065,-0.30852,-0.078972,0.53312,0.55874,0.2526,0.96673,-0.053506,-0.89522,0.073971,-0.53806,-0.436,-0.30855,-0.58911,-0.002467,0.32909,0.81384,0.48219,0.20153,-0.15553,-0.28306,-0.20651,-0.35959,-0.23205,0.023054,0.40568,0.89038,0.73722,-0.15557,-0.66573,-0.18108,0.048616,-0.15549,0.074008,-0.20645,-0.89504,-0.48696,-0.05347,0.53301,0.86469,-0.10446,0.2015,0.099491,-0.078972,-0.027913,-0.027895,0.55871,-0.46159,-1.0227,0.12505,0.81371,1.1454,-0.078984,-0.74221,-0.46164,-0.61462,-0.20646,-0.20644,0.074033,0.71168,0.2527,0.48214,0.32896,-0.43606,-0.43598,-0.027913,0.17611,0.17612,-0.30847,-0.18103,0.53311,0.73718,-0.053592,-0.69124,-0.79316,-0.20646,-0.15549,0.099613,0.12505,0.15059,0.99235,0.40565,0.50767,-0.5126,-1.1247,-0.92066,0.35464,0.4056,0.023017,0.074081,0.66062,0.15049,-0.25756,-0.283,-0.10449,-0.3341,-0.71665,0.17612,1.171,0.7373,-0.41063,-0.053446,-0.181,-0.28307,-0.23204,-0.64001,-0.18104,0.76255,0.17605,-0.30854,0.12508,0.4311,0.58409,0.76272,-0.10447,-0.61453,-0.48699,-0.84411,-0.51258,0.30356,0.20153,-0.10448,0.25252,0.63517,0.58421,0.099564,-0.15548,0.048536,-0.33406,-0.58907,-0.5126,-0.35958,0.022986,0.32912,0.22713,0.30368,0.023047,0.20154,0.2271,0.023029,-0.35953,-0.51259,-0.027987,0.27803,0.023096,-0.18094,0.15059,0.12505,0.048427,-0.002423,0.66069,-0.079002,-0.84415,-0.8186,0.073965,0.58414,0.48219,0.27807,0.38007,0.023047,-0.71656,-0.48703,0.8137,0.81378,0.074093,-0.61458,-0.028005,0.0485,-0.35964,-0.5891,-0.18097,0.40563,-0.053519,0.048555,0.12507,0.20164,0.32917,0.58417,0.048476,-0.61462,-0.10451,-0.0535,-0.48706,-0.25753,0.048592,0.023145,0.40568,0.2781,-0.33406,0.25248,-0.10452,-0.12998,0.45666,-0.053439,-0.46152,-0.10453,-0.33411,-0.10451,0.38011,0.73732,0.30365,0.074033,-0.89519,0.048445,0.099448,-0.33405,-0.61449,0.40579,0.78819,0.60968,0.43121,-0.56365,-0.69121,-0.30868,-0.33408,-0.28294,0.3037,0.15056,0.22706,-0.002436,0.43112,0.25257,0.048518,0.27806,0.022986,-0.48702,-0.538,0.17609,0.15056,-0.15547,-0.13005,0.7627,0.32908,-0.1555,-0.58914,-0.15549,-0.25746,0.15049,0.17602,-0.027913,-0.15548,0.15052,-0.13001,0.17611,0.30372,0.023108,0.25259,-0.028011,-0.002583,-0.33415,0.048555,0.023059,-0.027907,0.43113,-0.20655,-0.74212,-0.43597,0.30352,0.2271,-0.13001,-0.10453,-0.027969,0.17615,0.04858,0.048482,0.38014,0.45666,-0.002467,-0.002497,-0.15552,-1.3032,-0.33406,0.68613,0.38013,0.30358,-0.28292,-0.41053,-0.28302,0.15061,-0.027938,0.40568,0.58407,-0.35958,-0.15553,0.66062,-0.48702,-0.33399,-0.12994,-0.1045,0.15051,-0.10458,-0.30854,-0.334,0.50772,0.099491,0.12507,0.099613,0.25262,0.40565,0.38014,0.22707,-0.18108,-0.43615,-0.53807,-0.38503,0.02309,-0.20641,0.048525,0.48211,0.048506,0.15052,0.099546,-0.002454,0.048585,-0.002448,-0.053451,-0.10449,-0.48701,0.53307,0.17606,-0.41057,-0.53811,0.2526,0.63526,-0.053433,-0.23201,-0.10449,-0.25756,0.048458,0.25252,-0.053488,-0.15545,-0.027931,0.73719,0.12509,-0.15548,0.27817,0.48219,-0.46167,-1.2778,-0.30858,0.99224,0.27822,-0.18101,-0.81859,0.17612,0.27804,-0.13005,0.40567,0.20163,-0.35962,-0.53814,0.30363,-0.20649,-0.05347,0.0741,0.27808,0.83927,0.43109,-0.30861,-0.51261,-0.48708,-0.56357,-0.13001,0.89019,0.17618,0.45663,-0.23201,-0.38495,-0.00243,-0.18097,-0.20652,-0.13009,0.32905,0.66065,-0.18106,-0.30855,-0.76765,-0.283,1.0944,0.91581,0.048525,-0.28312,-0.66567,-0.35957,-0.12996,0.023059,0.55867,0.04858,0.20159,-0.18101,0.074062,-0.12999,-0.4871,-0.079039,0.27806,-0.18089,0.04861,0.68605,0.17607,-0.28298,-0.43605,0.2781,0.30361,-0.13004,-0.33409,0.22713,0.40566,-0.027969,-0.41053,-0.41055,0.22704,0.048561,-0.283,0.27805,0.48205,-0.20651,-0.28294,-0.23199,-0.002485,0.15054,0.17607,0.58419,0.25263,-0.43609,-0.43606,0.2271,-0.43604,-0.76755,0.48208,0.68613,-0.12999,-0.053482,0.58417,-0.18098,-0.053476,-0.25749,-0.20649,-0.078977,-0.12994,0.68616,0.78811,-0.20655,-0.69116,-0.74212,-0.35949,-0.002423,0.048598,0.53315,0.32913,-0.13001,-0.028042,-0.20655,0.27815,0.22707,-0.4361,-0.23201,0.43114,0.9668,0.40574,-0.28303,-0.61469,-0.51267,-0.56364,-0.51259,-0.28294,0.12514,0.48219,0.5586,0.22704,-0.28304,-0.10445,0.25262,0.48214,0.45661,0.30361,-0.20648,-0.30853,-0.38506,-0.43607,-0.46157,-0.38508,-0.3851,0.30358,1.0433,0.78823,0.022974,-0.28304,-0.64001,-0.61457,-0.053549,0.66069,0.099619,0.27803,0.50752,-0.23196,-0.38498,-0.28295,0.022956,-0.18112,-0.5891,-0.28297,0.53323,0.5587,0.32912,0.048555,-0.33404,0.074051,0.73722,-0.028029,-0.9972,0.099466,0.53313,0.17616,0.099601,-0.079008,-0.181,-0.20649,-0.25754,-0.181,0.1506,-0.053433,-0.20654,-0.002485,0.86471,-0.18103,-0.15553,0.30367,-0.38499,-0.23199,-0.12994,0.30358,-0.2831,-0.41057,-0.35963,0.09951,-0.002412,-0.027938,0.17614,0.40564,0.35461,0.25257,0.073959,-0.25757,-0.56354,-0.027974,0.099608,-0.23197,-0.028011,0.35471,0.099608,-0.07899,0.48205,0.4311,0.17607,-0.28302,-0.6656,-0.33406,0.63512,0.22707,-0.002448,-0.078984,-0.58912,-0.41055,0.048622,0.6861,-0.12998,0.09965,0.94127,0.89026,-0.12999,-0.6911,-0.69119,-0.64015,-0.41058,-0.002436,-0.078972,0.60964,0.60969,-0.078947,0.048567,-0.002479,-0.28306,0.099608,0.38011,0.12501,-0.079039,-0.58906,-0.28296,0.73728,0.71161,-0.10445,-0.46154,-0.71663,-0.43607,0.20159,0.17611,-0.18101,0.45661,0.38007,-0.079057,-0.20652,0.099595,-0.25748,-0.25748,0.17605,0.22713,-0.436,0.76256,0.53309,-0.43606,-0.23204,-0.385,0.17604,0.35461,-0.33393,-0.002412,0.50766,-0.4871,-0.3086,-0.35962,0.60973,0.96683,0.099619,-0.48713,-0.33409,-0.23201,-0.20656,0.43104,-0.10455,-0.76763,-0.487,0.17609,0.71165,-0.053446,-0.25747,-0.33396,0.099588,0.58421,0.30356,0.073995,-0.15546,-0.053495,0.227,-0.28303,-0.25745,-0.10444,-0.13001,0.63517,-0.079014,-0.33406,-0.84421,-0.6912,0.023047,0.9668,0.68626,-0.053348,-0.33401,-0.2066,0.09943,0.35465,0.35462,-0.43606,-0.053439,-0.43609,-0.25756,0.1761,0.50762,0.32909,0.099564,-0.10445,-0.25751,-0.002479,0.27817,0.023054,0.17606,-0.46152,-0.13001,0.17594,-0.15572,-0.79309,0.53329,0.20166,0.73722,0.30361,-0.94619,-0.79314,-0.28307,-0.078984,0.50753,0.27803,0.3036,-0.43602,0.3801,0.68624,0.25268,0.35476,-0.25745,-0.15555,-1.0993,-0.3596,0.6097,0.43113,0.023023,-0.6912,-0.33409,-0.15547,-0.30851,0.55863,0.66064,0.35463,0.074038,-0.12998,-0.56362,-0.30853,0.17611,0.048604,-0.33395,-0.30849,-0.0535,-0.053513,0.55861,0.40552,-0.10453,0.099515,0.30363,-0.15543,-0.61457,0.35465,0.68632,0.12513,-0.58911,-1.0737,-0.53819,0.20147,-0.13004,0.32904,0.3291,0.35472,0.15059,-0.43597,0.22713,1.0942,0.50766,-0.41055,-1.1247,-0.58914,-0.56359,0.023072,0.86471,1.3238,0.12501,-0.61459,-0.33404,-0.64006,-0.38504,-0.28302,-0.10445,0.40561,0.15057,0.099564,0.63504,0.83911,0.43112,-0.61454,-0.20651,-0.027974,-0.30851,-0.334,-0.10452,-0.30851,-0.15541,0.38017,0.53312,-0.002485,-0.30856,-0.25752,-0.10448,0.32917,0.76269,0.40553,-0.10456,-0.30855,-0.078959,-0.1555,-0.61455,-0.53803,0.15059,0.43115,-0.05347,-0.35956,0.4056,0.86477,-0.28302,-0.30855,0.17611,0.53326,1.2472,-0.13012,-0.79317,-0.66564,-1.0226,-0.13002,0.60964,0.73729,-0.12988,-0.51252,-0.23197,0.048536,-0.002565,-0.3341,-0.053519,0.48207,0.50763,0.40566,0.17615,0.22705,-0.23205,-0.12997,-0.30853,0.32914,0.023047,-0.41057,-0.28304,-0.053476,-0.10445,-0.1555,0.22712,0.30362,0.2526,-0.027987,0.20149,-0.5382,-0.4871,-0.053439,0.45672,0.40562,0.15054,-0.2065,0.60973,0.32917,-0.43604,-0.58913,-0.66565,-0.20654,1.2218,1.9107,0.96684,-0.99725,-1.2779,-1.0738,-0.79323,0.048525,-0.002534,0.30354,0.45669,0.60973,0.12511,-0.002301,0.20169,0.12516,-0.33405,-0.41061,-0.18112,-0.25757,-0.23202,0.25272,0.76277,0.78809,0.50755,-0.053506,-0.46162,-0.92074,-0.9462,0.30364,0.4567,0.20165,-0.46154,-0.12992,0.55869,0.17611,0.12507,-0.10457,-0.028047,-0.20653,0.227,-0.58911,-0.74201,0.89019,0.96669,0.50777,-0.41042,-0.18105,-0.18106,0.35458,-0.30858,-0.94622,-1.0482,-0.46154,0.78827,1.8086,0.43115,0.50754,-0.028054,-0.56358,-0.81865,-0.30849,0.048543,0.25259,0.73713,-0.002528,-0.51256,-0.25742,0.63521,0.32907,-0.027913,-0.12992,-0.13001,-0.079045,-0.20653,-0.23203,-0.15551,0.15056,0.17609,-0.002479,0.15054,0.20161,-0.053409,-0.28301,0.22704,0.71168,0.12509,-0.18102,-0.079045,-0.48713,-0.46154,-0.58911,-0.12998,0.30363,0.20161,0.023041,0.3291,0.09957,-0.12983,0.32905,0.099448,-0.30855,-0.48709,-0.18098,0.43117,0.68622,-0.23205,-0.41057,-0.46152,-0.35956,0.45652,0.023041,-0.078935,-0.2574,0.30361,0.68622,-0.027956,-0.53812,-0.23203,0.25246,0.32899,-0.63995,-0.33387,0.25269,0.17607,-0.053604,-0.10464,-0.079045,0.53323,0.27812,0.43108,-0.74214,-0.48697,-0.61452,-0.81867,-0.00254,1.4769,1.9106,-0.23203,-0.81864,-0.61459,0.15057,-0.23203,-0.25757,-0.002479,-0.33406,-0.25754,0.35464,0.38016,0.30363,-0.15548,-0.35951,-0.23205,0.63507,0.17613,0.55873,0.50762,-0.20652,-0.33399,-0.58908,-0.33409,-0.079002,-0.053464,-0.18103,-0.13009,-0.078984,1.1199,0.53317,-0.002558,0.32901,-0.00251,-0.41049,-0.28291,0.22716,0.22706,-0.10453,-0.0535,-0.30858,-0.41062,-0.027998,-0.002399,-0.56353,0.2781,0.94127,0.023035,-0.053464,0.048512,-0.028011,-0.58913,-0.43606,-0.15546,-0.1809,0.25265,1.0687,0.86469,0.17604,-0.33411,-0.5637,-0.66564,-0.33395,-0.38493,-0.28305,-0.078972,0.53312,0.58416,0.40566,0.17607,-0.10452,-0.10448,0.074075,-0.18097,0.048506,-0.41053,0.32919,0.6608,-0.35958,-0.25767,-0.2066,-0.028018,-0.25757,-0.053439,-0.20644,0.074087,0.78826,0.0741,-0.64006,-0.58913,-0.027998,0.27808,0.53318,0.4822,0.45662,0.27812,-0.71666,-0.33411,-0.28312,-0.15555,0.58422,0.50776,-0.69108,-0.58904,-0.51257,-0.079008,0.40553,0.71162,0.43113,0.12512,0.048567,-0.20652,-0.28299,0.32919,-0.33399,-0.079002,0.17597,-0.20652,-0.1045,-0.23202,0.25262,-0.078972,-0.30858,-0.181,0.53319,0.12516,0.22705,0.27802,0.25253,-0.10448,-0.84412,-0.66559,-0.51255,-0.3595,0.3291,-0.053451,0.53314,0.68611,0.30358,-0.12999,0.17613,0.66072,0.048506,-0.30858,-0.71663,-0.38505,-0.23205,0.45664,1.3239,0.15059,-0.71662,-1.0227,-0.3341,-0.33407,-0.18098,0.43124,0.50766,0.68609,0.048512,-0.10449,-0.002485,0.12502,0.048573,0.099546,-0.18097,-0.1299,0.25257,-0.53812,-0.74214,-0.12998,0.48218,0.55869,0.27808,-0.053562,-0.25756,-0.10447,0.15057,-0.15552,-0.35954,-0.23205,0.17605,0.58417,0.45666,-0.33401,-0.30846,0.25268,-0.18097,0.27805,0.30356,-0.23208,-0.71667,-0.23205,-0.078972,0.30354,0.48218,0.27819,-0.48702,-0.38514,-0.1045,0.27809,-0.027925,-0.25751,0.15062,0.2526,-0.002479,0.023023,-0.23197,-0.1555,0.76258,-0.15554,0.022998,-0.30847,0.25263,0.89035,-0.1554,-0.92068,-0.46161,-0.079088,0.12503,-0.053458,-0.56357,0.20149,0.73719,0.40563,-0.18097,-0.48708,0.38017,0.71172,0.099559,-0.38504,-0.48705,-0.30851,-0.30855,-0.13004,0.048543,0.32908,-0.15551,-0.027962,0.35461,0.5586,0.94125,-0.71656,-0.41049,-0.35954,-0.232,0.12508,-0.15553,-0.25759,0.1505,0.48211,-0.15553,0.15052,0.3802,-0.23193,-0.43602,-0.38503,0.20156,0.53309,-0.18101,0.048561,-0.002461,-0.43607,-0.25756,-0.053506,0.43119,0.099595,0.58416,0.35465,0.099613,-0.76761,-0.71664,-0.4106,-0.66559,0.35448,0.53311,0.023108,0.17609,0.048536,0.96672,1.4259,-0.487,-1.0226,-0.66556,-0.30851,-0.41058,-0.33403,-0.028005,0.35453,0.074062,0.50755,0.38005,-0.30854,0.099588,0.45662,-0.30844,-0.38491,-0.38498,-0.078984,0.38013,0.48213,-0.2831,-0.2831,-0.3086,-0.38507,-0.02795,0.20167,0.43117,0.45661,0.71171,0.32916,-0.6401,-0.35967,-0.028029,-0.94611,-0.81856,-0.1044,0.48212,0.35458,0.17611,0.074038,-0.078984,0.074087,0.17611,-0.002485,0.20154,0.27812,0.3291,0.37997,-0.10449,-0.84407,-0.48708,0.15056,0.22711,-0.1299,-0.25744,0.17608,-0.18107,-0.51266,-0.053495,0.73726,0.55861,0.048531,-0.078977,-0.33401,-0.027938,-0.10449,0.58417,0.6097,-0.23199,-0.33405,-0.81867,-0.58913,0.099534,0.074033,-0.30854,-0.30854,0.96659,0.86475,-0.053372,-0.30844,0.32916,0.048543,-0.25754,-0.078947,0.12512,-0.35951,-0.5381,-0.25759,0.40554,0.30356,0.023005,-0.58905,0.35456,0.76267,0.048641,-0.538,-0.76761,-0.20658,0.22704,0.32915,0.5332,0.048506,-0.18104,-0.10445,0.074051,-0.10447,-0.81865,-0.66567,0.76268,1.7574,0.38012,-0.61452,-1.0482,0.25253,0.27811,-0.053384,-0.46152,-0.5126,-0.41064,0.27804,-0.18103,-0.10458,0.91582,1.1199,1.1454,0.023114,-0.71663,-1.0483,-1.2523,-0.33404,0.45662,0.022986,0.55866,0.3802,0.27816,0.099583,-0.33407,-0.51262,-0.20658,0.023005,0.022974,0.048573,-0.002381,0.48218,0.4057,-0.3085,-0.079008,0.35456,-0.33402,-0.38506,0.99206,0.20148,-0.30843,-0.30846,-0.38497,-0.18094,-0.30854,-0.35952,0.27813,0.50762,0.20154,0.099564,-0.23208,-0.35959,0.38007,0.15054,0.099626,-0.053378,-0.35945,-0.10448,-0.46164,0.074062,0.60972,0.43115,-0.027956,0.22712,-0.43607,-0.58919,-0.25762,-0.48714,-0.002485,0.8393,0.71179,0.35464,-0.38503,-0.23203,-0.053544,-0.23203,-0.43604,-0.23197,0.58416,0.89024,0.50773,0.12508,-0.66563,-0.89513,0.37994,0.35446,-0.92068,-0.05339,-0.027871,0.30364,0.25262,-0.078984,-0.51257,-0.28298,-0.2065,0.30354,0.43118,1.1451,0.45651,-0.41047,-0.97156,-0.35949,-0.1045,-0.41051,-0.25749,0.22708,0.53317,-0.002472,-0.61467,0.8646,0.91571,0.099626,-0.33396,-0.92065,-0.53815,-0.23208,0.32919,0.5332,0.12513,-0.38505,-0.43612,-0.028018,-0.46154,-0.283,0.048561,0.63518,0.71164,-0.33398,0.38006,0.91578,0.50769
0.074013,-0.13002,-0.12999,-0.078966,-0.002454,-0.07899,-0.053464,0.15059,0.074057,0.074026,-0.002472,0.023023,0.022998,-0.027987,-0.10446,-0.15546,-0.12998,-0.078928,0.12507,0.17604,0.099521,0.38007,0.023017,-0.181,-0.12995,-0.20648,-0.15549,-0.12994,0.20158,0.17605,0.02301,-0.079014,-0.027998,0.023041,-0.20652,-0.078966,0.09957,-0.002436,0.048561,0.074051,0.023041,-0.10451,-0.20653,-0.078984,0.048549,0.023054,-0.10445,-0.10444,-0.078953,-0.053488,0.12502,0.12503,-0.002485,-0.05347,-0.053458,-0.002454,-0.002443,0.074062,0.048561,0.023047,-0.002467,-0.027993,0.12504,-0.002491,-0.002454,-0.10446,-0.078941,-0.00243,-0.053464,0.023023,0.099521,0.048525,0.15055,0.023029,-0.027974,-0.027969,-0.078977,-0.002454,0.048567,0.20156,0.074044,-0.1045,-0.027974,0.099546,0.023029,0.023059,-0.078947,-0.20651,0.099546,0.2526,0.023035,-0.1045,-0.20655,-0.15552,-0.027969,0.048543,0.023059,-0.078966,0.023047,0.048555,0.048531,-0.10452,0.099546,0.048549,-0.027987,-0.12999,-0.002418,0.099595,0.15059,0.15057,0.22708,0.048506,-0.76769,-0.3851,0.25263,0.25263,0.048585,0.22712,0.099613,-0.027969,-0.028023,-0.1045,-0.053488,-0.053495,-0.002491,0.023029,0.048561,-0.002423,-0.053439,-0.20647,-0.002485,0.38005,-0.027987,-0.078966,-0.027962,-0.053451,-0.002461,-0.002454,-0.002472,-0.027974,-0.078984,-0.2065,-0.1045,0.099534,0.12504,0.12505,0.12509,-0.053476,-0.12996,-0.002436,-0.053476,-0.20655,0.22707,0.15054,-0.078996,-0.30853,0.048573,0.1251,-0.027956,0.048549,0.023047,-0.1045,-0.002497,0.048567,0.1761,-0.027962,-0.20653,-0.002491,-0.13,-0.078959,-0.078996,0.22706,0.15055,0.20156,-0.002461,-0.027969,-0.10447,-0.078928,0.15064,0.15059,-0.078996,-0.15553,0.12502,0.12503,-0.10452,-0.10447,-0.053451,-0.002423,-0.10447,-0.027974,0.048549,0.02301,-0.23204,-0.33407,0.12504,0.40563,0.09957,0.023072,0.17615,0.25262,0.15056,-0.18103,-0.28308,-0.51265,-0.23203,-0.33403,0.023054,-0.078959,-0.02795,0.60972,1.0178,0.48216,-0.002467,-0.51256,-0.41061,-0.51258,-0.4871,-0.33412,-0.46161,0.20156,2.4461,1.0944,-0.41044,-0.97175,-0.56372,-0.69109,-0.66561,-0.41049,0.71165,0.71166,0.45667,0.099693,-0.38512,-0.86975,-0.15551,0.45673,0.53317,0.15049,-0.74208,-0.0791,-0.28305,1.2476,2.5992,0.63524,-1.3289,-2.5276,-1.788,-1.4562,-0.46152,0.17596,3.1603,1.2984,0.53318,0.25254,-0.079093,-0.8186,-0.81853,-1.2523,-1.5585,0.099406,2.8797,5.1501,0.94137,-2.043,-2.8593,-1.9921,0.20151,0.40568,-0.86959,-0.18096,0.78821,3.3646,1.9616,-2.2983,-4.0326,-1.1248,1.9873,1.3494,0.022889,-0.33425,-1.1248,-1.5582,0.09954,0.86474,1.273,0.27812,-0.07885,1.1454,3.5174,0.76257,-1.7118,-2.2472,-0.99708,0.099888,-1.5071,-0.84414,0.94116,0.48199,-1.4819,-0.58911,0.96674,1.0179,-0.86974,-0.51276,1.1455,2.0381,0.94134,-0.079045,-0.51257,-1.4817,-0.8187,0.63533,1.0433,-0.66578,-1.839,-1.4819,2.3442,2.2933,-0.89515,-1.89,-1.7116,0.76257,1.0944,0.81381,-0.25751,-0.38514,-0.10453,1.0945,0.91582,-0.079021,-1.2777,-1.3797,1.2217,0.94115,-1.3798,-1.4562,0.73736,2.8288,-0.15547,0.50773,-0.58924,-1.482,-1.2779,-0.078984,-0.56348,-0.53806,0.63518,0.50766,0.91578,0.27815,-0.002577,0.38013,0.7627,0.15059,-0.58909,0.02309,-0.51255,-0.002461,-0.28307,-0.51264,0.78829,1.5025,0.25255,-1.0739,-1.6349,-0.97168,0.4057,-0.33398,0.25274,1.1199,-0.13002,-0.94626,1.2218,1.5533,-0.30858,-0.81876,-0.25763,0.30366,1.1199,0.04842,-1.0993,-0.7675,-0.48688,1.1452,2.0889,0.15066,-1.5328,-1.8644,-1.2523,-0.053525,0.22696,2.6757,2.1656,0.15054,-1.992,-1.7879,-0.6657,0.83926,0.40574,1.6046,0.60955,-0.89512,-0.48703,0.35461,-0.30865,0.43088,-0.33415,0.17623,-0.66555,0.27814,1.6555,1.2474,-0.079026,-0.61476,-1.0992,-1.4052,-0.23202,0.50764,-0.078941,-0.97168,-0.30851,0.89033,1.0179,2.7012,0.22678,-1.9157,-1.6604,-0.027834,0.63532,-0.15549,-0.58916,-0.30863,1.9104,0.63526,0.35472,0.50778,-0.99712,-1.4052,-0.94621,-0.94624,-0.66567,1.4769,1.2472,0.91554,0.76273,0.71183,-0.79304,-1.3287,-1.3543,-0.6911,0.22702,0.40549,0.074111,1.6811,0.76275,1.0687,-0.58925,-1.941,0.023072,0.45666,0.43133,-1.2012,-0.84421,-1.0228,-0.10475,0.86464,1.2475,0.38034,-0.12992,-0.30852,-0.15548,-0.35946,0.074118,0.099357,0.12475,0.6096,1.4006,-0.027791,-1.4053,-0.43623,0.25256,0.048665,-0.28284,-0.30848,-0.7934,-0.10459,0.86474,-0.33396,1.324,1.0433,1.0944,-1.2268,-1.3543,-1.5074,-1.1249,-0.28301,0.023029,0.25261,1.222,2.3698,0.76273,-0.56363,0.20156,-0.41064,-0.7678,0.12505,0.22713,-0.46156,0.22709,-0.56347,-0.61457,0.50769,-0.61472,-1.0738,-0.7167,0.32913,2.4971,1.6554,-0.25746,-0.56352,-0.15545,-0.43604,-0.69118,-0.79329,-0.35958,0.78836,0.40569,0.048512,-0.13011,-0.43606,-0.028047,0.40556,0.48207,-0.10459,0.43122,1.5791,1.9872,-1.2267,-1.1503,-1.0993,-0.48718,-1.1503,-0.89519,0.89035,0.25255,-0.48711,-0.07899,0.68623,0.35471,0.35461,0.32898,-0.25751,0.55871,1.732,-0.002381,-0.61474,-0.61471,-1.1756,-0.5634,-0.12989,-0.23201,-0.079081,0.66053,0.35461,0.099668,-0.30847,0.073959,0.40548,0.07394,0.58428,-0.28287,0.099644,-0.23207,-0.61474,-0.41069,0.58428,-0.10439,0.27809,0.27827,-0.53802,-1.2779,-0.15566,3.0839,1.4515,-1.2013,-1.9411,-1.0483,0.30374,-0.027895,-0.13007,0.48197,0.2526,-0.53802,0.074087,1.1962,0.35463,-0.18092,-0.002289,0.22714,0.38,-0.30863,-0.027846,-0.05339,-0.48708,-0.86975,-1.1248,0.40566,0.78822,1.5533,0.68632,-0.53807,-0.13001,0.60962,-1.1504,-1.7626,-1.5584,0.63527,1.6046,1.5281,0.99245,-0.92071,-0.76783,-0.10472,-0.66562,-0.81859,0.048531,0.22711,0.40564,0.53328,0.15059,0.60962,0.73734,0.86478,0.099588,-0.69111,-1.1758,-1.3799,-0.86972,-0.002552,1.9105,0.48212,-0.7931,1.2985,1.0179,-1.1247,-2.0685,-1.2524,-0.48713,0.22712,1.4769,0.89031,-0.30846,0.40566,0.78808,0.17595,-0.51267,-1.3032,-1.1246,0.27822,1.324,0.43122,-0.13004,-0.10463,0.4054,-0.15554,-0.38506,-0.13014,-0.4106,-0.20631,1.5025,0.023059,-0.8186,-1.1758,-0.48717,0.83924,1.3239,-0.38507,-0.69118,0.60968,0.30369,-0.18098,0.50765,-0.41061,-0.69115,-0.74218,0.43096,0.32914,0.099588,-0.23199,-0.79311,-0.38504,1.4004,-0.18104,1.375,1.171,0.40572,0.12504,-0.53821,-1.0228,-1.7369,-1.6094,-0.69125,0.38006,1.0178,0.58416,-0.20639,0.8393,0.81374,0.71165,0.22704,-0.53809,0.32918,0.53318,0.71177,-0.20655,-1.2778,-0.53809,-0.84415,-0.30854,-0.05347,0.074155,0.63511,0.58405,0.17601,-0.69112,-0.81862,0.38019,2.3953,0.55872,-0.97182,-0.38522,0.15065,0.1252,0.32912,-0.053586,-0.69115,-0.79312,-0.538,0.048561,0.30361,0.30356,0.55862,1.3239,-0.15555,-0.81881,0.17609,0.91588,0.50779,0.3291,-1.0738,-1.2524,-1.2268,-0.58913,0.023035,-0.30846,0.63522,1.5024,0.86481,-0.002454,-0.79315,-0.41056,0.91573,-0.61447,0.073959,0.89009,-0.25754,-0.28298,-0.43603,-0.28297,0.15068,-0.078984,-0.41063,0.7882,-0.30857,-0.38512,-0.33409,-0.002394,-0.002394,0.30361,0.76269,1.5279,0.048555,-0.86974,-0.61454,0.81385,0.25257,-0.84428,-1.9409,-1.1502,-0.002528,0.7117,1.3748,0.78821,0.58435,1.0434,0.6097,-0.56366,-0.81871,-0.028085,-0.61468,-0.99715,-0.53788,1.5026,1.2728,-0.9463,-1.3544,-0.81876,0.53321,1.2218,0.63511,0.38011,0.2527,-0.2574,-0.86967,-0.56369,-0.079033,-0.5891,-0.5381,0.27815,0.53325,0.4058,1.2983,0.40554,-0.33415,-0.64015,0.27792,-0.46161,-0.94604,0.48235,0.66075,-0.002491,-0.18098,-0.28303,-0.58918,-0.66567,-0.43612,0.32902,0.94114,0.43128,1.0945,0.20155,-0.66565,-0.51264,-0.66562,-0.94623,-0.79317,0.4311,0.35467,1.1963,2.6759,0.40583,-1.3544,-0.25775,0.099485,-0.41064,-1.2268,-1.2013,-0.74215,0.27819,0.8904,0.45674,0.22705,0.30356,0.5587,0.32907,-0.84424,-0.43612,0.35472,0.78835,0.27811,-1.0228,0.5842,0.66066,-0.46168,-0.89529,-0.74216,-0.41054,-0.002289,-0.41052,0.074062,0.63515,0.76267,0.40563,-0.15554,-0.35956,0.17607,0.53311,0.25274,0.12512,-1.0738,-0.76766,1.2218,-0.07891,0.71168,0.12503,-0.38505,-0.84422,-0.23207,0.22711,0.99227,0.43125,-0.13001,-1.4563,-1.992,-0.5891,0.99235,1.2984,0.43123,-0.07907,0.45641,0.38006,-0.30852,-0.15542,0.22711,0.6352,0.4056,-0.43607,-1.3032,-0.48702,0.73724,0.66078,0.38015,-0.15554,-0.2321,-1.1758,-0.56366,-0.053549,0.68635,0.71179,-0.30848,0.023041,0.60959,0.099387,-0.76767,-0.58911,-0.43592,0.32917,0.58414,0.2781,0.73728,0.60966,-1.0737,-0.66575,-0.079033,-0.25751,-0.25753,0.22711,0.30364,-0.3085,-0.25742,0.20158,0.71159,0.9922,-0.053544,-1.3289,-0.53801,2.089,2.5993,-0.48688,-2.0174,-1.8644,-1.1249,-0.84426,-0.002588,0.60961,0.50767,0.53317,0.99237,0.91583,0.45664,-0.18103,-0.30858,0.023108,-0.53811,-0.84419,-0.76761,0.17612,1.3494,0.022961,-0.15562,-0.86961,0.074038,-0.002448,0.53328,0.76277,0.20152,0.17601,-0.35962,-0.84416,-0.38503,-0.18098,-0.20658,-0.61462,-0.46159,0.76257,0.25263,-0.23185,0.099675,0.73731,1.0688,0.71158,-0.43616,-0.92068,-0.53806,0.15053,0.4821,-0.30852,-0.86969,-1.0737,1.171,3.2624,0.43109,-1.3033,-1.6349,-1.0482,-0.76771,0.15049,0.04861,-0.027931,0.43117,0.68617,0.12504,0.40568,0.73724,0.35462,0.099491,-0.66568,-0.56358,-0.58903,-0.10446,0.35459,-0.28307,-0.43613,1.0433,1.2473,0.15061,-0.30846,-0.53807,-0.84419,-0.3851,-0.028005,0.43113,0.20161,-0.3851,-0.35966,0.43108,0.76272,0.22719,0.50778,0.07416,-0.76764,-1.3799,0.55875,2.4207,1.3492,-0.8698,-2.1196,-1.5584,-1.0228,-0.76766,0.81381,1.3494,0.35459,-0.12992,-1.2265,0.25261,1.1452,0.25263,-0.078886,-0.20648,0.15052,-0.28305,0.15046,0.09954,-0.13,-0.41061,-0.00251,1.1453,0.12515,-0.58902,-0.25757,0.1506,-0.028018,-0.58914,-0.3851,0.27806,0.55872,-0.053415,-0.2065,0.55862,-0.53815,0.074087,0.55869,0.89021,-0.38509,-0.69112,-0.86966,-0.46147,-0.33401,0.0485,0.17616,0.48219,1.2727,0.76256,-0.10454,-0.10447,0.35473,-0.56355,-1.1503,0.023108,0.48227,-0.79308,-0.33405,0.073917,-0.51264,0.20162,0.32907,0.25256,1.0179,-0.07891,-1.1246,0.68605,0.81356,-0.38513,-0.53807,-0.20642,0.20167,0.43118,0.22712,-0.53804,-0.56355,-0.33402,-0.027974,0.32904,0.32899,0.35456,0.099577,0.023047,-0.41058,-0.28303,-0.46151,-0.28302,0.94128,-0.23204,0.89012,1.1199,0.53329,-0.86955,-1.6604,-0.89526,0.073984,0.074033,0.50761,0.38016,0.3802,-0.12987,0.68616,1.0943,-0.6401,-1.0737,-0.48707,0.5332,0.45657,-0.30858,-0.71671,-0.46169,0.58419,0.023139,0.12518,0.074111,0.48218,0.45666,-0.10447,-0.35956,-0.64014,-0.61471,-0.74222,-0.41061,0.99235,0.91578,1.783,1.2729,-0.30851,-1.0738,-1.1504,-1.5074,-2.3745,1.1197,1.7321,0.099717,0.53336,0.20166,-0.1556,-0.25767,-0.15556,-0.66561,0.022943,0.073971,0.30372,0.76275,0.66069,0.32913,0.30363,-0.23199,-0.69115,-0.7167,-0.41059,-0.7676,-0.33406,0.35452,0.81375,1.3239,0.27817,-0.46157,-0.12997,-0.43612,-0.43608,-0.078928,-0.58903,0.048438,0.35451,-0.10447,0.38012,0.48215,-0.1555,-0.64012,-0.41054,0.6608,0.60977,-0.74204,0.17601,0.58405,0.12497,-0.56365,-0.66566,0.04861,-0.002443,1.0689,0.78837,-0.4105,-1.0481,-0.71685,-0.46179,-0.58923,0.38018,1.0434,0.22711,0.12508,0.25257,-0.00251,-0.30855,-0.385,0.15061,0.35456,-0.15546,0.1506,0.27812,-0.027895,-0.35954,-0.41061,0.17603,0.099521,-0.10449,0.20167,-0.18092,-0.002467,-0.51274,-0.76772,-0.25763,1.1707,0.43126,1.2986,-0.30836,-0.79321,-0.053604,-0.35956,-0.30865,-0.64011,-0.28296,-0.25744,0.27809,0.40555,0.89025,1.1709,0.68621,-0.20649,-1.1247,-0.23207,-0.33396,-0.41052,-0.12995,-0.053537,-0.33411,-0.079021,0.2271,0.53311,1.0178,0.35474,-0.30846,-0.66571,-0.81889,-0.94611,1.4006,1.324,-0.46156,-0.69123,-0.53824,-0.74221,-0.79319,-0.84413,-0.58903,1.6045,2.2421,0.35449,-0.15554,0.048506,0.099521,-1.0481,-0.30855,-0.61452,-0.027901,-0.25751,0.022961,0.50755,0.023005,-0.18103,0.15055,0.17606,-0.2831,-0.35942,0.5077,1.3494,0.60973,-0.18099,-0.18105,-0.74217,-1.0483,-1.0483,-0.56359,0.12504,0.8648,0.96691,-0.002479,0.20151,-0.23213,-0.10455,0.63517,0.27812,0.023072,-0.078947,0.4312,-0.15548,-0.99726,-1.4309,0.15066,1.3495,1.9615,-0.28299,-1.1247,-1.2013,-0.69119,0.27795,0.83924,1.0943,-0.078996,-0.30859,-0.58911,-0.86967,0.17619,1.1709,1.0178,0.86476,0.50765,-0.92072,-1.4053,-0.84415,-0.84414,-0.43615,0.176,0.40569,1.5536,1.6045,-0.61467,-0.56373,2.0379,0.023047,-1.1247,-0.74216,-1.2777,-0.38498,-0.53806,-0.66566,0.7116,1.8085,0.66068,-0.15541,-0.79301,0.35461,-0.1045,-0.61462,-0.28305,-0.002503,0.40558,0.53315,0.32912,0.15054,-0.23207,-0.38505,0.17611,-0.41056,-1.0227,-0.18093,0.20169,0.96676,0.45656,-0.23215,0.12494,0.6352,-0.94607,0.17624,0.48228,-0.48707,-0.56372,-0.41071,-0.66575,0.25254,0.89034,0.6863,-0.43592,0.32912,0.3035,0.07402,-0.30855,-0.48711,-0.053495,-0.53812,-0.25753,0.45663,0.45672,0.63509,0.38022,-0.12991,-0.05347,-0.18105,-0.028054,-0.74215,-0.89512,-0.30856,0.25261,1.3493,0.89015,-0.33395,-0.46156,-0.61464,-0.71661,0.83938,1.0178,0.58418,0.12503,-0.30858,-1.0483,-1.0483,-1.0482,-0.10453,0.2781,0.43123,1.5024,0.94135,-0.10439,0.15059,0.073971,-0.3086,-0.61465,-0.66565,0.25262,0.50779,-1.099,0.022998,-0.002552,-0.30863,0.074002,1.1198,1.1454,-0.30856,-0.28305,-0.027969,-1.0737,-0.99713,1.0944,0.35465,-0.25757,-0.079002,0.45654,0.048451,0.48199,-0.15556,-0.28292,-0.078923,-0.25746,-0.002479,0.048525,0.35473,0.074124,-0.15553,-0.28305,-0.30856,0.15057,0.35462,0.63527,0.50769,-0.2321,-0.61468,-0.41071,0.15047,-0.46162,-0.1299,0.38031,1.5025,-0.15546,-1.2267,-0.64013,-0.38513,0.5586,0.048482,-0.23207,0.27813,0.68627,0.12507,0.27821,-0.10445,-0.053531,-0.43618,0.2015,0.27801,0.12508,-0.43596,0.27823,-0.20644,-0.079021,-0.18103,-0.23208,0.55867,-0.58911,-0.3851,-0.20654,-0.027993,0.099534,0.1507,1.5279,1.1198,-0.81864,-0.97168,-0.69111,-1.0737,-0.38514,-0.002558,1.4004,-0.05336,0.63515,0.71168,-0.078928,-0.20642,0.30361,-0.48714,-0.86983,-0.4106,-0.15546,0.17612,0.25259,-0.053519,1.2219,0.66078,-1.0227,-0.92074,-0.002491,1.0433,-0.053446,-0.69111,-0.20652,-0.181,0.074026,0.7372,1.0688,-0.15549,-0.56363,-0.35967,0.17611,0.58433,-0.35946,-0.43611,-0.99727,-0.58918,0.25257,0.32904,0.023084,0.22719,-0.053293,0.7117,0.99217,0.17606,-0.56356,-0.56361,0.048555,0.20149,0.32905,-0.6146,-0.99716,-0.23201,-0.35947,-0.30851,0.7883,0.55867,0.048518,-0.84422,-0.10458,1.3237,0.73722,0.074093,-0.38497,-0.41052,-0.20652,-0.4361,-0.46164,-0.25757,1.0688,1.1964,-0.002479,-0.74204,-0.053323,-0.053562,-0.13008,-0.23208,-0.10456,-0.35966,-0.41057,0.43124,0.55876,-0.20642,0.32905,0.22704,-0.56356,-0.35956,0.32907,-0.15557,-0.25759,-0.13007,0.99229,0.68629,-0.053262,0.27824,0.55871,-0.76777,-1.0738,-0.51265,-0.053506,-0.71659,-0.38505,1.6553,0.9922,0.68619,-0.53801,-0.79312,-0.43604,0.048531,-0.15547,-0.053378,-0.002381,-0.18097,0.12513,0.32913,0.45656,0.38003,0.35453,0.32897,0.15051,-0.41054,-0.283,-1.3031,-0.46149,0.53317,0.50763,0.074038,-0.74209,-0.51262,0.50766,0.91577,0.4311,0.27809,-0.56363,-0.81869,-0.69116,-0.53808,0.17613,0.58424,0.50764,0.45664,0.58414,0.48216,-0.30855,-1.4308,-0.89521,0.35463,1.4005,0.45669,-0.64013,-0.66567,-0.51265,1.3238,0.45661,0.25267,-0.538,-0.89509,0.35458,0.68605,-1.4562,0.55852,0.15045,-0.51252,0.074118,-0.38494,-0.66553,-0.10454,0.32908,0.73718,0.71173,0.32913,0.20158,0.2016,-0.25749,-0.48708,-0.33404,-0.23203,-0.15553,0.048451,-0.97174,-0.99729,-0.25759,2.0127,2.0382,-0.33396,-0.56358,-0.64015,0.048391,-0.53819,-0.94625,0.4567,0.4567,0.048561,-0.10451,0.48216,0.15064,0.20164,0.099528,-0.13001,-0.18099,0.25257,0.83917,-0.12999,-0.71654,-0.41054,-0.079057,-0.20655,-1.2267,-0.00254,1.2981,0.9923,-0.053366,0.099662,0.6608,-0.15545,-0.56357,0.1759,-0.53818,-1.0228,-0.41058,0.17608,0.099595,-0.35951,-0.23188,0.91575,1.2473,0.48205,-0.74214,0.3037,0.40568,-0.25751,-0.46159,-0.002516,-0.053537,-0.15548,0.17614,-0.20644,-0.079002,-0.1556,-0.15559,-0.053446,0.83922,0.86471,-0.46147,-0.53807,-0.15554,-0.20652,-0.28299,-0.30854,-0.48706,-0.25754,0.17614,0.50763,2.0125,0.58421,-0.69108,-0.53804,-0.46159,-0.28314,0.40546,-0.38506,-0.334,-0.35945,-0.334,-0.078959,-0.002412,1.2475,1.5535,1.0431,-0.56381,-1.0228,-1.1758,-0.58902,-0.38488,0.20166,0.30358,0.4311,0.66065,-0.6401,-0.38503,-0.10456,-0.079137,-0.002454,0.38024,0.81385,1.2729,0.68621,-0.66571,-0.86974,-1.0483,-1.0483,-0.58918,0.099564,0.86491,1.0434,0.63522,-0.33401,0.37991,-0.33421,-0.4872,0.35467,-0.25745,-0.33399,-0.51248,-0.2575,0.35466,0.40565,-0.56363,-0.92073,1.2727,2.3951,2.5228,-0.48701,-1.7624,-1.737,-1.3033,-1.0483,-0.51262,0.12505,0.63517,0.3037,0.3292,1.2219,0.99231,0.30361,-0.46158,-0.13002,0.89017,-0.30857,-0.66557,-0.7676,-0.74215,-1.2267,-0.15551,1.3748,2.3696,1.5281,-1.1502,-1.7115,-0.97188,-0.30868,-0.41056,-0.25751,-0.69113,0.99243,0.83949,0.53317,0.83918,0.89014,-0.71666,-1.2268,-0.15557,-0.18098,0.22709,0.63518,0.53315,-0.538,-0.64004,-0.48704,0.48214,-0.10449,-0.23208,0.30348,-0.30855,0.8903,0.68638,-0.10455,-0.69122,-0.028133,0.35456,0.30373,-0.43595,-0.43606,-0.002558,-0.43605,-0.12993,0.40569,-0.43606,-0.18106,0.68599,0.99234,-0.15542,-0.33404,-0.30852,-0.30846,-0.25752,0.27798,0.048445,-0.12997,-0.38502,0.27805,-0.33407,0.15058,0.71184,0.73732,-0.23202,-0.56365,-0.33409,0.53312,-0.28303,-0.38495,0.66058,-0.028054,-0.35953,-0.43599,-0.38504,0.02295,-0.078947,0.96684,0.63523,-0.25752,-0.18099,-0.13002,0.099479,-0.28302,-1.7879,0.32901,1.885,1.4769,-0.18092,-0.56367,-0.74222,-0.97172,-0.89517,-0.64007,0.17603,0.20157,1.1454,1.222,0.25253,-0.20656,-0.48711,0.048512,-0.2575,-0.81859,-0.12996,0.58421,0.73731,0.099534,-0.20662,0.022943,-0.25756,-0.053519,0.022998,-0.92058,0.32923,0.81379,-0.002479,-0.18102,0.15053,-0.35956,-0.48702,-0.12998,-0.53803,0.73703,0.278,0.66078,0.73729,-0.15546,-0.23209,-0.28306,0.53312,-0.23201,-0.84408,-0.5891,-0.7421,0.94122,0.60968,1.273,0.099534,-0.99726,-0.84422,-0.30848,-0.4871,1.1453,1.2218,0.3547,-0.53798,-0.74211,-0.35961,0.12501,0.22706,-0.078972,-0.053464,0.60976,-0.027956,-0.002479,0.17602,0.074008,-0.23203,-0.20653,-0.94614,0.048506,0.68615,0.38018,-0.51251,-0.23197,-0.027956,0.45659,0.17604,0.1761,0.023096,-0.56358,-0.48712,-0.81866,-0.15554,2.3693,0.32905,-0.64005,-0.05339,-0.053402,0.20156,-0.28298,-0.33399,0.20158,0.17608,0.074062,0.38006,-0.41052,-0.20654,-0.079002,-0.002454,-0.027962,0.2526,0.27811,0.074008,0.30354,0.12507,-0.69113,-0.71668,0.023023,-0.23188,0.78829,0.22708,0.35467,0.83923,-0.18101,-0.86971,-0.25753,0.32907,-0.28312,-1.1758,0.048567,0.94137,0.66074,0.17609,-0.25762,-0.9207,-0.35964,-0.23205,-0.07899,-0.12999,0.60976,2.2678,1.0179,-0.3341,-0.79327,-0.94629,-0.66573,-0.1046,0.17609,-0.84406,-0.6655,0.43116,1.6808,0.38011,-0.35954,-0.30855,-0.25757,-0.3595,0.22711,0.53324,0.60969,-0.38505,-0.51259,-0.92068,-0.35946,0.45659,0.73708,0.023047,0.27818,-0.053433,0.35465,0.074038,-0.76765,-0.89515,-0.028023,0.32904,0.25257,0.27814,0.5842,0.27814,-0.46153,-0.92052,-0.23209,0.048445,0.074155,0.22713,0.25257,0.55853,-0.18107,-0.46154,-0.15549,0.50759,0.15064,0.45678,-0.002394,-0.23209,-0.2831,-0.30857,-0.33407,0.17611,0.12508,-0.12992,-0.20647,0.43107,0.35456,-0.25757,-0.20652,-0.23199,0.048536,0.32913,-0.2575,-0.33396,0.099601,0.68617,0.48212,-0.28305,-0.71667,-0.35961,0.30352,0.55874,0.91589,1.0435,-0.41053,-1.0483,-0.64031,-1.1503,-0.84415,0.25258,1.1707,0.4567,0.17619,-0.28294,-0.25753,0.30357,-0.078984,0.50768,0.2271,-0.079045,-0.30859,-0.13004,0.40559,0.17613,0.48223,0.048653,-0.46158,-0.56367,-0.10467,-0.53811,-0.48708,0.4312,0.45673,0.27816,0.32913,-0.51257,-0.41064,-0.10464,0.022998,-0.61452,-0.2829,0.48227,1.2984,0.20159,0.48206,-0.35963,-0.56364,0.022992,0.35463,0.38016,-0.69108,-0.46167,0.048512,0.09965,-0.38497,-0.15543,1.0942,0.25254,-0.38505,-0.92072,0.38013,0.45663,-0.10452,0.074136,0.35472,0.023059,-0.4361,-0.64017,-0.41064,0.074033,0.83931,0.55871,-0.38504,-0.20656,-0.53814,-0.64008,0.12505,1.5534,1.1708,-0.38502,-1.2522,-0.99714,0.32905,0.20159,-0.385,0.048476,0.38008,1.0943,-0.002497,-0.2575,-0.5636,-0.53807,0.099564,-0.25751,0.78825,1.6554,0.68611,-0.69116,-1.1502,-0.74211,-0.38508,-0.33406,-0.053482,0.96672,1.1708,-0.002374,0.4057,0.1506,-0.61465,-0.7167,-0.4616,-0.15557,-0.079002,-0.38499,0.20159,0.12512,0.12514,0.45657,0.55863,0.58409,-0.23204,-0.71657,0.55881,0.45678,-0.53806,0.40564,0.099461,-0.94637,-0.97182,-0.69118,-0.15549,1.0433,0.96676,0.17623,0.25278,0.17607,-0.38519,-0.41063,-0.053415,-0.10444,-0.25751,-0.027998,-0.13001,0.12504,0.55873,0.66072,-0.20653,-0.25748,0.63514,0.17597,-0.81871,-0.20653,-0.18101,-0.51252,-1.1501,-1.4307,1.2727,1.5534,0.048629,0.78835,0.27815,-0.33413,-0.43616,-0.38511,-0.4871,0.15052,0.12504,-0.283,0.32918,1.528,1.2474,-0.51261,-0.64021,-0.64019,-1.2012,0.25252,0.40546,-0.51255,-0.25742,0.43115,0.40564,0.27811,0.45666,0.12511,-0.25745,-0.23199,-0.10449,0.15053,0.048494,-0.002565,0.048469,-0.053525,-0.53808,-0.436,-0.23194,0.48218,0.81376,-0.28294,-0.002521,-0.1301,-0.20656,-0.25756,-0.35953,0.38013,1.0434,0.63537,-0.46157,-0.99732,-0.25759,0.20157,0.53317,0.40566,-0.48711,-0.71661,-0.23207,-0.02806,-0.12999,0.86467,1.1454,-0.10443,-0.89511,0.074106,0.15065,0.15064,-0.13002,-0.028036,-0.13009,-0.28309,-0.079026,-0.07907,0.30354,0.27815,0.76293,0.53324,0.12507,-0.58905,-0.84422,-0.15551,-0.25758,-0.43618,-0.13004,-0.66562,-0.10447,-0.078947,1.8086,1.3495,-0.38509,-0.28311,-0.35966,-0.48715,0.048494,0.27808,-0.28295,-0.86958,0.074234,0.5331,0.76263,0.66065,-0.89517,-0.69116,-0.51263,0.15055,0.30357,-0.078904,-0.002356,0.63524,0.96684,-0.35956,-0.7422,-0.13012,-0.20661,-0.89515,-0.43604,0.7117,1.8849,0.81384,-0.38504,-0.56361,-0.4871,-0.56363,-0.28306,-0.25751,0.25267,0.58428,0.15062,0.25252,0.45659,-0.027987,-0.23207,-0.10452,-0.35953,-0.20656,0.02295,-0.28302,0.55876,0.58426,0.43111,-0.28309,-0.48712,-0.56358,-0.51256,-0.15546,0.45675,0.3546,0.25257,-0.30847,0.43106,0.12494,-0.28306,0.30357,0.45662,-0.18101,-0.00243,-0.41051,-0.28298,0.023029,-0.002479,-0.053506,-0.28302,-0.053488,0.048555,0.30364,0.12509,0.40568,0.023078,-0.41058,-0.07907,0.02295,-0.20653,-0.053384,0.27809,0.96673,-0.35952,-0.86964,-0.38502,0.12505,0.12504,-0.00251,0.17604,-0.10443,-0.28301,0.022961,0.58422,0.63523,-0.15548,-0.46159,-0.30857,-0.23201,-0.18095,-0.28303,-0.38508,-0.10452,0.27804,0.45665,-0.2319,0.9413,1.4512,0.58413,-0.6911,-1.3033,-0.99727,-0.10447,-0.63998,0.81379,0.76277,-0.078879,-0.46156,-0.07907,0.20149,0.22694,0.25245,-0.078977,0.023133,0.074167,-0.46145,-0.25756,0.099454,-0.1045,0.66074,0.45667,0.099503,-0.18095,-0.07899,-0.23204,-0.51257,-0.181,0.32908,0.12501,-0.10453,-0.35954,0.27816,0.25258,0.099534,-0.61463,0.81373,1.5535,1.171,-0.92059,-1.3545,-1.431,-1.1758,-0.58911,-0.12998,0.55873,0.91579,-0.078959,0.9923,1.0688,-0.33405,-0.41053,-0.079002,0.12504,-0.13002,-0.28305,-0.10447,0.25257,-0.12997,-0.053384,0.20161,0.35454,-0.0791,-0.43609,-0.38506,0.17607,-0.078966,-0.53806,-0.18094,0.4312,1.3494,0.38011,-0.58917,0.074002,-0.002461,-0.43607,-0.89521,-0.5126,0.27808,0.22712,0.048487,0.32907,0.09951,0.17617,0.099693,-0.25746,0.2271,0.73715,0.55864,0.074111,-0.15548,-0.64012,-0.51265,-0.4616,-0.41053,-0.53805,0.38011,0.1505,0.074038,0.22712,0.53315,0.35467,-0.25751,-0.76771,-0.38509,0.25259,0.58424,0.94142,0.048518,-0.35968,-0.99724,-0.10456,0.38011,-0.027956,-0.46159,0.3802,1.0944,-0.38505,-0.6912,-0.30858,-0.71664,0.023065,0.45676,0.30366,0.66052,0.40546,-0.66561,-0.053402,-0.23196,-0.35948,-0.81851,0.07402,0.53306,0.55864,-0.15547,-0.28301,-0.078959,0.4056,0.32907,-0.18102,-0.28301,0.023084,0.53312,-0.33406,-0.28297,-0.25751,-0.079039,0.27808,0.099577,-0.12995,-0.13,0.074081,0.099564,-0.15554,-0.13,-0.002497,0.12506,0.94132,1.1453,-0.30855,-0.99715,-0.84416,-0.18104,0.38009,-0.002516,-0.0535,-0.48701,0.15059,0.35458,0.30363,0.53324,0.22712,-0.10451,0.71151,-0.028005,-0.20649,-0.41044,-0.41049,-0.28304,-0.43599,0.15052,0.37998,-0.18103,-0.38506,0.15058,0.25269,0.099681,0.048512,-0.15557,-0.51268,-0.66565,0.76277,1.1709,0.6608,-0.002467,-0.66572,-1.0228,-0.81869,-0.41058,-0.66564,0.048567,1.0178,0.66067,0.15057,0.58432,0.63525,-0.18108,-0.66569,-0.33406,0.3802,0.50772,-0.10453,-0.61467,-0.84418,-0.3596,0.023023,0.22715,0.17614,0.32913,-0.13001,0.48196,0.38,0.27818,-0.002332,0.023181,-0.053433,-0.71667,-0.23205,0.023023,0.25253,-0.002443,0.074106,-0.10447,0.58415,-0.30856,-0.43608,0.022998,-0.56367,-0.35966,0.60967,0.63529,0.58432,-0.002443,0.073984,-0.334,-0.28299,-0.38503,-0.33404,-0.23204,-0.30855,0.1506,0.86468,0.15054,-0.13001,0.53326,1.0944,-0.61463,-0.97176,-0.61468,-0.53812,-0.38505,0.3036,0.12509,-0.30846,0.1251,0.66061,0.32912,0.7372,0.5586,-0.48705,-0.538,-0.35953,-0.18097,0.20159,-0.2065,-0.33401,-0.33405,-0.23204,-0.35956,0.45664,0.99225,0.71157,0.17599,0.17609,-0.51258,-0.64011,-0.25745,0.22708,-0.028011,-0.078935,0.35468,-0.18097,-0.334,0.023029,0.431,0.20159,0.53326,0.73727,-0.84419,-0.41063,1.0178,0.43112,-0.8187,-0.6911,-0.23196,-0.33399,-0.33402,-0.35957,0.099515,0.4056,0.50765,0.66067,0.32907,-0.232,-0.053439,0.1761,-0.41054,-0.53814,0.2526,0.5332,0.83926,0.40563,-0.56362,-0.6657,-0.43606,-0.94606,0.15047,0.20153,-0.46155,0.048585,0.38016,0.53322,0.22707,0.35454,0.27817,-0.027864,-0.053439,-0.23204,-0.18106,-0.25763,-0.46165,-0.79315,-0.35959,0.78813,1.4005,0.91594,0.58433,-0.43605,-0.76775,-0.53821,-0.58918,-0.76763,-0.23204,0.76264,0.43119,-0.4615,-0.002394,0.55861,0.60965,0.25266,0.30358,1.1453,0.22711,-0.99722,-1.0737,-1.0482,-0.436,-0.43602,-0.02792,0.2526,-0.3851,1.3747,0.91567,-0.02792,-0.28297,0.17609,-0.053519,-0.33412,-0.53813,-0.027944,0.71185,0.40569,-0.25755,-0.84415,-0.5891,0.17603,0.53316,0.73726,-0.18104,-0.43614,-0.56365,-0.48712,0.17612,1.4259,0.66073,-0.35952,-0.81862,-0.58913,-0.1811,0.25255,-0.002443,0.074038,0.099595,0.12508,0.20159,0.048549,-0.12995,-0.027944,-0.053464,-0.02798,-0.053495,0.17602,-0.079014,0.074044,0.27809,-0.002448,-0.28298,-0.41052,-0.053495,-0.283,0.17605,-0.028018,-0.28303,-0.3595,1.0177,1.2729,-0.10441,-1.0736,-0.66567,-0.15565,0.22699,0.15054,0.04858,0.5588,0.43124,0.048506,-0.23213,-0.56362,-0.51258,0.53321,0.3547,-0.56358,-0.56361,-0.28303,0.023023,0.32909,0.43114,0.25263,0.12507,0.43118,0.22706,-0.13011,-0.25759,-0.5891,0.63521,0.43104,-0.33394
-0.002497,-0.10447,-0.002436,0.12508,0.048555,-0.002467,-0.027987,-0.027974,-0.027987,-0.078984,-0.027962,-0.078953,-0.18099,0.04858,0.15059,0.074044,-0.3851,-0.13,-0.18102,0.35461,0.32912,0.32912,0.074075,-0.25751,-0.18101,-0.15551,-0.25753,-0.2065,0.38014,0.63515,-0.15553,-0.23197,0.27815,0.1251,-0.1045,-0.15553,-0.18105,-0.3341,-0.20653,-0.002472,0.023072,0.12507,0.1506,0.27812,0.17609,0.023035,0.048561,0.048531,0.023035,0.20156,0.12509,-0.2575,-0.1045,-0.07891,-0.18098,-0.25756,-0.13005,-0.18108,0.12508,-0.6147,-0.56368,1.0433,1.0179,0.83939,0.023084,-0.28302,-0.38508,-0.66571,-0.64017,-0.58917,-0.053495,0.099637,1.0433,1.3493,-0.25761,-1.3033,-1.0228,-0.28296,0.48224,0.50775,0.25268,1.0433,0.25255,-0.53815,-0.71654,-0.20652,-0.18105,0.12487,-0.51264,-0.28298,0.43128,2.5739,2.0382,0.55869,-0.81872,-1.941,-1.839,-1.7114,-1.176,-0.84437,0.78823,1.579,1.4516,0.074155,0.25278,0.78832,-0.51249,-1.2268,-0.25781,-0.5638,-0.28302,0.35473,1.171,2.9308,-0.078966,-1.4309,-0.30842,-0.69121,-2.0942,-1.7882,0.15037,1.171,3.1351,3.4158,3.2115,-1.3034,-3.6246,-1.8136,-1.0739,-0.97186,-1.6861,-1.0738,1.0689,2.5739,3.3137,0.78834,-1.6605,-0.92084,-0.79324,0.43115,-0.41051,-0.81852,0.48222,1.885,-0.53822,-0.86976,0.89033,1.6556,-0.43609,-1.2779,-0.28302,-0.28312,-0.86981,-0.84419,-0.71673,0.38017,2.3442,0.6098,-1.8646,-0.79324,-0.20653,1.9618,5.1757,0.78835,-1.2014,-0.56377,-2.2728,-2.8338,-2.094,1.1454,0.86497,-0.99718,-0.46157,-0.48701,-0.23209,1.5532,1.732,1.6045,0.66078,-0.30856,-1.3288,-0.02798,0.83926,-0.38515,-1.0738,-0.027895,0.68624,0.45673,0.35467,-1.1248,-2.936,-1.2524,2.1657,4.9207,1.4007,-1.9921,-2.4513,-2.2218,-0.97187,1.0433,0.50783,0.4312,0.30369,0.7628,0.71176,-0.23207,-0.23211,0.86467,0.22696,-1.0482,0.023292,1.9361,0.35472,0.02301,-0.86987,-0.97193,-2.1962,-0.92068,1.12,0.48238,-0.33413,1.4259,1.2729,0.76278,0.96669,-0.94639,-2.0429,-0.38497,-0.2575,-0.51258,-0.28304,-0.2575,0.15059,0.9922,1.1198,0.30369,-0.2831,-0.66564,1.0943,2.3186,-0.078904,-1.4563,0.3036,-0.18098,-0.30847,-0.94625,-1.5074,-0.74211,1.4515,0.4311,-1.2523,-0.92077,0.66058,0.83908,0.66096,0.15064,0.48194,0.71182,0.55883,-0.74206,-1.2013,-0.76778,-0.028018,0.68632,0.865,-0.41037,0.099491,-0.38519,-1.3035,-1.3801,0.63506,2.8033,1.9616,0.023243,-1.3796,-1.3797,-1.788,-0.078972,0.5332,-0.2066,0.38,0.86466,0.99226,-0.28304,-0.41057,-0.43615,0.99223,1.8596,1.4771,-1.9409,-1.8137,-0.38522,-0.18094,-0.078684,0.78859,0.35465,-1.4565,-1.5075,0.78818,1.9104,0.50761,-0.00232,0.96708,-0.027846,-0.81891,-0.028133,-1.1758,-2.4002,-0.74231,0.074069,0.53325,0.83944,0.83939,0.7883,1.0687,0.25252,-0.53812,0.38011,1.1199,0.023103,-1.2013,-1.329,-1.4819,0.40574,1.6554,0.07402,-1.1758,0.25279,1.7066,-0.46174,-1.8136,-1.2524,0.074087,1.4771,1.7067,0.32918,-0.46166,-0.13022,-0.33419,-0.69121,-0.99715,0.50768,0.66061,0.4312,0.17624,-0.053317,0.32921,0.48218,-0.66567,-2.0686,0.35441,0.81355,1.426,2.0638,-0.58897,-1.8644,-1.8135,-0.41056,0.73716,-0.35961,-2.145,-0.56383,1.8084,3.4666,1.4263,0.074149,-0.43631,-1.5585,-2.0175,-2.0175,-0.28306,4.538,3.7474,-0.25743,-1.5585,-1.7372,-1.5332,-0.56377,-0.10443,-0.23186,0.25253,-0.20648,0.91595,1.5536,-0.66565,-0.71671,-0.38511,-1.1759,-0.86982,2.3951,3.0329,1.9108,-0.56356,-0.8698,-1.5074,-1.4565,-1.2013,-1.0228,-1.6095,0.40571,1.3496,2.1658,1.3493,0.45651,-0.5382,-0.56354,-0.92064,-1.3798,-1.2013,-0.4361,3.1603,2.3185,0.50768,-0.86953,-1.1247,-0.20657,-1.0484,-2.4001,-0.28298,3.5174,3.8746,-0.61457,-2.6042,-1.6604,-0.43603,-1.0227,-1.6605,-1.0484,1.4769,2.2423,0.25276,2.8285,1.9869,-1.2011,-2.4509,-1.6604,-0.002503,2.0381,0.30358,-0.89516,-1.3032,-0.76771,0.6352,0.89032,0.83924,-0.33416,-0.43618,-0.56364,-0.61463,0.15058,0.15062,0.22713,0.38022,1.2474,0.22713,-0.46165,-0.74232,-0.89519,0.40566,0.89023,2.7522,1.1454,-1.2777,-2.298,-0.79317,-0.94614,-0.4873,-0.92092,-0.9208,-0.38482,1.9105,3.1093,1.1709,0.27819,-0.23202,-1.1503,-1.1503,-0.25753,0.20155,0.12504,-0.99718,-0.56359,-0.20644,1.1199,1.6301,1.2728,0.12496,-1.0738,-1.0484,-1.4564,-0.23208,1.0688,0.22737,-0.56348,-0.48706,-0.079051,0.17599,0.17608,0.099448,0.25241,-0.43606,0.5843,0.32924,0.04861,-0.28313,0.78804,-0.41055,0.86487,0.63538,-1.2012,-0.81879,-1.2013,0.71157,2.2421,2.1658,-1.0736,-2.5276,-0.66578,-0.43624,0.023065,1.0434,1.6046,-0.79314,-0.51268,-0.15553,1.4003,1.2473,-0.66565,-2.3746,-0.61459,-0.38511,-0.8441,-0.027803,2.4717,2.242,2.0635,0.20147,-1.8133,-1.2522,-0.2574,-1.1759,-1.176,-0.76739,1.8852,3.007,-0.61454,-1.1756,-1.9663,-0.38525,-0.1302,0.91578,0.50762,0.023047,0.15078,1.0945,0.12509,-0.94632,-0.51263,0.66055,0.48193,0.53303,1.7576,0.68637,-1.2011,-0.35945,-1.8134,-2.3236,0.20156,3.645,1.1455,-1.3287,-1.4564,-0.69133,0.53288,0.60955,-0.64006,-1.5071,-1.099,1.2984,1.8083,1.1963,1.2217,1.0433,-0.15524,-1.5071,-0.15548,-0.079118,-0.97205,-1.5075,-0.23191,1.2221,0.27809,-0.71685,-0.20668,0.43122,2.676,1.0945,-1.7878,-1.8389,-0.89526,-0.7933,-0.41069,-0.1301,1.7576,1.1199,0.38025,0.099619,-0.18104,1.0943,-0.6657,-1.0483,-0.58927,-0.15566,-0.00243,0.32935,0.20164,0.66065,-0.69102,-0.79301,-0.71649,1.2216,0.83909,0.048616,-0.51259,-0.97173,-0.35959,1.8085,2.1401,-0.43604,-1.6094,-0.48719,0.27805,-0.43615,-0.76772,-0.94637,2.6249,1.6302,1.2731,-0.71666,-2.0176,-2.4257,-0.51285,-0.18112,-0.5379,0.20177,1.3749,1.7063,1.4512,0.048476,-1.1247,-1.4816,1.7831,1.6044,-1.1247,-1.2522,-0.46147,-0.23209,0.20141,-0.053629,-1.0483,-0.15549,0.45668,1.2475,0.27822,-0.23198,-0.89527,-1.3544,0.20136,2.9817,0.8393,-2.196,-0.20634,0.99243,-0.28297,-0.86966,-0.64015,-0.053616,0.60955,-0.4871,-0.079026,0.94132,0.25262,0.25259,-0.053397,0.125,-0.20655,-0.81859,-0.5891,-0.027993,0.35472,-0.12995,-0.48709,-0.4106,-0.35952,0.45664,0.38013,0.35464,0.073971,0.76259,0.3035,-0.43611,0.68617,0.35465,-0.30846,-1.2522,-0.41041,1.3242,1.5534,0.20133,-1.7371,-1.7115,-0.7677,0.32906,0.20161,-0.64004,-0.7166,0.68625,1.7066,1.8595,1.0177,-0.15554,-0.76763,-0.94632,-1.9155,-1.0739,-0.97173,1.0942,2.1913,1.7833,1.1965,-0.86967,-1.38,-1.125,-0.69125,-0.94622,-1.2268,-0.64018,1.2218,2.0892,1.5535,0.40565,0.17597,-0.079045,-0.76769,-0.48705,-0.51249,-0.28292,-0.94602,0.68626,0.81373,0.17594,-0.38521,-1.4562,-0.25765,1.4768,0.5588,0.17619,-0.61466,0.32896,0.074087,1.5281,0.81388,-0.7167,-1.0993,-1.3033,-2.247,-1.0227,0.81363,2.0636,1.3749,0.91573,0.17606,-0.38502,-0.76763,-0.79307,-0.4871,1.0941,-0.30857,-0.078819,0.40579,0.15059,0.40562,0.022913,-0.15556,-0.48707,-1.0993,-0.97177,-0.48706,0.048634,0.81371,0.83923,0.12499,1.1197,1.4006,0.58436,-0.28302,-0.84416,-1.2777,-1.1503,-1.3289,0.45642,0.048433,-0.56359,0.73743,2.5994,1.1709,-0.15554,-0.6657,-0.86971,-0.61462,-0.61458,-0.92067,-0.97162,-0.48708,2.1146,2.2421,1.8341,1.2984,0.12502,-2.1198,-2.0942,-1.6604,-1.4053,-0.41044,0.78841,1.1198,0.73728,0.83923,-0.20648,-0.3086,0.30351,-0.35951,1.9871,1.936,-0.56354,-1.8899,-2.8082,-1.0993,0.20149,-0.30868,1.834,1.8851,0.76276,-0.027907,-0.99715,-1.4308,-0.89523,-0.1556,0.227,-0.18109,0.58414,1.63,0.76282,0.45684,-0.61455,-0.64014,-0.51254,0.43106,0.022705,-0.51268,-0.86955,-0.18085,1.6555,1.018,0.89024,-0.1556,-1.4054,-1.3287,-0.35959,-0.20665,-0.46152,0.30365,0.20159,0.27815,1.4768,0.43093,0.40563,0.023127,-0.86951,-0.35941,-1.0991,-1.0482,1.3492,1.6044,1.7575,1.3239,-2.2726,-3.2163,-1.5329,0.71164,0.55869,1.3239,0.50773,-0.18094,-0.30848,-0.94622,-0.58908,0.099613,0.91571,0.1506,0.2526,0.099546,-0.002516,0.99216,0.78823,1.6298,0.55854,-2.4253,-2.3744,-1.6093,0.73734,0.30364,0.40561,0.023035,0.074038,1.4002,0.63517,-0.51264,-0.35962,-0.69118,-0.89514,0.50772,1.4515,-0.002356,-0.25756,-0.28312,-0.99715,-0.30874,2.0636,2.4719,-0.51262,-1.0993,-0.66558,-0.48709,-0.43618,-1.5328,-1.1246,-0.002503,0.99226,0.63512,0.12501,0.15054,-0.078947,-0.81841,1.783,1.3748,0.1506,-0.2065,-0.66562,-0.56366,-0.56363,-0.33405,-0.30855,-0.5126,-0.56366,-0.33407,0.48219,1.5024,0.86475,-0.12998,-0.41056,-0.25752,-0.1555,-0.84419,-0.9462,-0.15555,0.32918,-0.053458,0.40565,0.30362,0.32913,0.73721,-0.20646,-0.15557,1.3238,-0.56358,-0.74209,-0.053384,0.71178,-0.002491,-0.1046,-0.69126,-1.0992,-0.10449,0.94131,-0.97172,-0.13001,1.6554,1.4769,0.55868,-0.56357,-1.1502,-0.33405,-0.53809,0.27822,1.0944,1.0942,0.40562,-1.1758,-1.2013,-0.99729,-1.0228,-0.35962,1.0177,2.0892,1.273,-0.18096,-1.0482,-0.61465,0.022937,-0.23209,-0.99712,0.099626,0.81374,0.94119,-0.33405,-0.79314,-0.28308,0.35462,0.63531,1.1964,1.0179,-0.15555,-0.66578,-1.5584,-1.8644,-0.71663,0.55865,0.53321,0.45664,-0.027956,0.32892,-0.41076,0.074069,1.9617,1.7322,1.324,-1.3542,-1.5839,-0.2067,-0.81867,-1.2012,-0.2065,0.94131,1.7576,0.40561,-1.2268,0.048268,-0.10465,-0.94619,-0.51257,0.81366,-1.0992,-0.10427,1.5282,3.3902,0.94138,-1.3289,-1.4566,-1.3036,-0.58928,-0.15534,0.02323,-0.28303,0.22704,0.43104,0.38006,0.22704,-0.61466,0.76267,0.55876,0.40593,-0.078801,0.20161,-0.38508,-0.56368,-0.76767,0.25238,-0.48729,-0.46168,-0.6402,0.99235,1.324,0.86478,0.48236,-0.74201,-0.38503,-0.56358,0.53296,-1.5076,-1.4054,1.9872,1.5791,-0.053317,-0.9973,-0.8443,-0.61471,-0.053562,0.074002,-0.15559,-0.64014,0.12514,1.7322,1.4516,0.50765,0.38006,-0.28311,-0.74228,-0.84427,-0.58918,-0.33402,-0.12996,0.45667,-0.002423,0.048555,0.58416,0.048391,-0.81858,-1.1501,0.60965,1.528,0.66076,0.023072,-0.20671,-2.4766,-1.8391,2.8543,3.2882,-0.51251,-1.5839,-0.56379,-0.69129,-0.64022,0.099521,0.12508,-0.48688,-0.027846,0.04861,-0.12995,0.099613,1.4003,1.6042,0.50759,-0.18101,-0.97168,-0.86968,-0.002461,1.8086,0.1762,-1.4818,-1.2779,-0.053544,-0.41061,-1.2268,0.86475,0.78822,0.099619,-0.35959,-1.0738,0.074087,1.6299,3.339,1.0689,-0.81851,-0.30868,-0.69127,-1.7624,-1.9665,-1.4818,0.71181,0.81379,1.1708,0.6606,0.22705,-0.25743,0.17603,-0.15549,-1.2013,-0.46159,0.7372,0.71176,0.99235,0.68625,-0.20651,-0.66569,-1.3799,-0.25761,1.0433,1.018,-0.53806,-1.0738,-1.2013,-1.1248,0.53307,2.9563,0.81374,-1.3797,-1.4818,-0.46148,2.3697,2.2676,-0.43604,-1.992,-1.9155,-0.33404,0.40561,0.63503,-1.6093,0.48204,3.2624,2.1402,-0.078837,-1.6859,-0.84422,-0.56366,-0.66567,-1.0738,-0.33403,-0.51252,0.89031,0.71183,1.528,0.45656,-0.56377,-0.86982,-0.10447,0.32907,-1.0227,-0.94603,0.20177,1.6554,1.936,0.40553,-0.9462,-0.84414,-0.64011,-1.4308,-1.9409,1.7574,2.242,1.1964,-0.2575,-0.97171,-1.2778,-1.1758,-0.13005,0.6352,2.0636,0.50778,-0.53809,-0.53812,-0.92076,-0.43609,-0.15545,0.023047,-0.10452,0.25269,4.0532,0.048512,-1.1502,-1.2778,-1.1249,-0.51272,-0.35964,-0.41057,-0.28301,0.25259,1.3495,1.0434,0.099608,0.53318,-0.38519,-0.84437,-0.58917,-0.33387,0.81377,1.12,-1.0992,-0.79309,0.50745,-0.25762,-0.58909,-0.35951,0.073977,0.86466,0.78816,-0.20653,0.20166,-0.61448,-1.6092,-0.66581,1.7319,0.71182,0.71179,-0.002443,-0.76776,-0.46167,-0.46157,0.32907,0.45654,0.66073,0.099583,-0.92061,-0.12995,0.20159,-0.43609,-0.66561,-0.18108,0.22717,1.4259,1.5535,1.2729,1.222,-1.8389,-2.6296,-1.4564,-0.76793,-1.1758,-0.028066,2.1654,1.9615,1.2985,0.048665,-0.97175,-1.3288,-0.66555,-0.18087,0.50779,3.3389,1.1196,-1.3544,-0.94628,-1.5839,-1.0993,-0.64011,-0.18098,0.22707,0.17604,0.60967,0.68626,0.43123,0.43118,0.25255,-0.027969,-0.20656,0.20155,0.50767,0.22719,-0.43604,-0.079088,0.45653,-1.2012,-1.1503,0.58429,0.53329,-0.79309,0.22714,0.20158,-0.81873,-0.51274,-0.10472,0.35468,1.426,1.2219,-0.30853,-0.28304,0.45663,-0.15557,-0.8187,-1.0992,-0.53804,1.0942,1.2474,-0.23195,-0.28295,0.17601,0.40558,-0.002443,-0.43612,-0.76766,-0.66565,-0.078966,0.81371,2.497,0.94116,-0.84406,-1.6857,-1.3287,-0.30854,-0.10457,0.12499,0.099637,0.81379,-0.10459,-0.30854,1.2985,0.9923,0.635,0.86461,-0.18094,-1.6349,-0.58914,-0.027864,-0.99698,-0.38486,-0.97164,1.681,1.3749,-1.0484,-1.3544,-0.18119,0.35445,-0.10447,-0.15546,-0.53802,0.27815,1.1709,1.324,0.27825,0.22707,-0.23205,-0.28311,-0.69114,-1.0737,0.15052,-0.30847,-0.10443,1.8338,-0.07907,-0.69116,-0.64012,-0.30854,-0.66569,0.91584,2.1147,0.38016,-1.482,-0.89529,-0.79321,-0.61462,-0.23198,0.2527,0.81371,0.86469,0.074062,-0.18106,-0.12996,1.3239,0.71185,0.20158,0.20149,-0.81862,-1.3542,-1.3798,-0.53815,0.76254,0.32909,-0.12999,0.48202,0.38008,0.048708,0.4569,-0.66541,0.73714,0.048366,-0.3597,-1.5329,-0.58921,2.5737,0.96688,-0.64001,-0.84415,-0.6657,-0.028011,-0.71663,-0.56362,-0.334,-0.079014,1.4259,0.99239,0.27815,0.4565,-0.30866,-0.5891,-0.86962,-0.61462,0.2782,0.17605,0.96672,0.09957,-0.28297,-0.25746,-0.15552,-0.15555,-0.92076,-0.25753,1.3494,1.273,1.1709,0.12493,-1.5584,-1.4308,-0.97169,0.30369,0.02295,0.50743,0.73726,-0.71653,-0.86958,-0.23193,0.58427,1.63,0.94125,-1.1247,-0.7932,0.22704,0.30365,0.176,0.37999,0.099454,-0.51257,-0.33405,0.83923,-0.2575,-1.1246,-0.99704,-0.20644,0.35458,-0.15554,1.5021,0.7117,0.50776,0.12527,-1.1246,0.048342,-0.38523,-0.027998,-0.48706,-0.15534,0.023145,-0.33407,-0.28322,-0.002454,0.20171,0.73729,0.58409,0.66067,0.55867,-0.027944,-1.3033,-1.3033,-0.25755,1.4768,0.71175,-0.6146,-0.76765,1.1454,0.55869,-0.58908,-0.86971,-0.86963,-0.15549,0.27808,0.45659,0.45654,-0.97174,-0.30844,2.5227,0.3802,-0.18111,-0.053488,-0.74202,-1.1757,-0.99723,-0.51268,-1.5586,-0.69132,1.8086,4.8186,2.2167,-0.15555,-1.584,-2.0686,-1.941,-2.2471,-1.4563,1.1199,2.0891,1.2984,0.78812,1.2218,0.35465,-0.56361,-0.84408,-0.76758,-0.64015,-0.028005,-0.20648,0.25259,0.22702,0.76261,-0.64026,-0.97174,1.0435,2.7525,-0.99715,-0.89525,1.1963,-1.0994,-2.5532,-1.1249,0.83919,0.71183,0.60963,0.32919,-0.33384,0.53314,0.40552,-0.283,-1.0991,-0.58916,0.76262,1.0943,1.1454,0.73723,-0.48711,-1.482,-0.002613,0.81384,-0.43595,-1.1758,-0.41061,1.0688,-0.20648,-0.15547,0.40569,-0.002644,-0.20666,-0.69106,-0.76759,-0.23195,0.20164,0.73723,0.86474,0.63518,0.099588,0.15055,-0.079106,-0.56367,0.66071,2.7012,1.2985,-1.8134,-2.4766,-1.9665,-0.94622,-0.23203,-0.05347,-0.15543,1.3238,0.60955,1.2473,0.81375,-0.078843,0.22724,0.023035,1.0178,0.099515,-0.51264,-0.79314,-1.8645,-1.6349,-0.97163,1.4004,2.9053,2.0892,0.099613,-1.3799,-1.5075,-0.51275,-0.64034,-1.1759,1.324,1.9871,0.45681,-0.74192,-1.1756,-1.2778,-1.0993,0.22701,1.6044,1.2218,0.71168,-0.18105,-0.79321,-0.97162,0.17596,0.81364,-0.66569,0.45656,1.4004,1.8342,-0.28287,-0.8951,-1.0482,-1.8135,-1.5329,-0.43612,-0.33412,-0.28317,0.53307,1.6044,4.2574,1.2476,-1.0227,-1.1248,-0.79329,-0.48721,-1.4819,-1.3288,-0.86967,1.579,2.7011,0.66067,-0.15538,-1.0735,-0.30853,-0.41069,-1.2523,-0.66573,-0.35961,0.58416,0.35455,0.099637,-0.43595,-0.53801,1.0432,1.8594,1.1709,-0.5126,-0.79312,-0.71671,-1.2779,-1.6604,1.0691,3.5687,0.17592,-0.97187,-0.92066,-0.15552,-1.0993,-0.53817,0.048536,-0.12999,0.63527,0.53326,-0.33404,0.15045,0.48208,0.32906,0.45662,-0.30844,-0.58901,-0.18097,0.1761,0.35463,0.35467,0.3291,-0.76774,-0.69125,-0.13007,1.426,1.2475,-0.64006,-1.4818,-1.6858,0.40551,0.81354,-0.81864,-0.7422,0.50761,0.53325,1.6044,3.3391,-0.84415,-1.5329,-1.7625,-1.6605,-1.4565,0.22707,1.834,2.3187,1.1964,-0.94614,-1.4818,-1.1247,-0.00251,0.48208,0.58421,0.27804,0.15049,-0.002497,0.58423,-0.8186,-1.5839,0.68611,2.7268,1.8342,-0.84408,-1.6349,-1.8901,-1.5075,0.63517,1.2731,0.3036,-0.86974,0.099644,0.83926,0.12492,0.17598,-0.15547,-0.51259,0.023072,0.27812,-0.30855,-0.30849,0.76283,1.477,0.099577,-0.18114,-0.97177,-0.76767,-0.5636,0.099583,0.48211,0.9157,0.35465,-0.18108,-0.84417,-0.89511,0.48229,0.86481,-0.20651,-0.64015,0.099479,0.53313,0.25252,-0.30847,-0.18093,0.176,0.3034,0.12508,-0.1043,0.15067,-0.38494,-0.02792,1.0942,-0.2066,-0.30852,-0.30846,-0.86964,-0.64018,-0.69127,0.30356,0.96685,1.1201,0.91582,-0.30865,-1.3545,-0.74231,2.2932,1.0179,-1.3288,-0.81864,-0.053378,-0.23198,-0.028029,-0.30864,-0.33404,0.25267,-0.053476,-0.20657,-0.20653,0.48226,0.50774,1.4513,0.94122,0.023072,0.32908,-0.25762,-1.2269,-1.5073,0.15058,-0.13,-0.56347,-0.2319,0.3292,1.2984,0.48215,-0.43616,-0.71674,0.20139,-0.15558,-0.10446,-0.12989,0.023152,-0.20639,0.81365,0.89014,-0.078959,-0.53806,-0.56354,-0.23198,0.073965,-0.3851,-0.25746,0.7374,0.63531,1.8086,-0.38511,-1.686,-1.5074,-1.1503,-0.81881,0.53309,1.4005,1.2475,-0.15553,-0.3851,-0.15553,0.3291,0.30365,-0.078984,0.50767,0.2527,-0.64006,-0.74208,0.35453,-0.2575,-0.30849,0.35453,0.30347,-0.002485,-0.181,0.35464,0.53317,0.023065,0.17607,0.074087,-0.25753,-0.58916,-0.79318,0.2527,0.048585,0.074087,-0.69101,0.58407,-0.48728,-1.3289,1.0178,3.6961,2.8545,-0.94617,-2.7062,-2.5022,0.38009,-0.053525,-1.3799,-0.81871,0.48218,0.58421,0.53314,-0.58907,1.1198,2.2676,1.8341,0.023206,-1.2778,-1.3545,-1.0229,-1.3033,0.43131,1.4006,0.63526,-0.66571,-0.66583,-0.35977,-1.2269,-0.41049,1.4769,2.1147,0.32922,-0.71663,-0.15549,-0.027944,-0.10443,-0.56358,-0.56361,-0.10465,0.48201,1.7575,0.38022,-0.43605,0.04858,-1.1247,-0.078941,-0.25755,-0.5126,-0.35954,0.81375,-0.92078,-0.58912,3.3389,1.3493,0.17614,0.53307,-1.635,-2.2471,-1.4308,0.81384,-0.078959,0.022986,0.4566,0.73743,0.68638,-0.20652,0.38001,0.66055,0.43115,0.30372,-0.64012,-0.86974,-0.99718,0.25261,0.099534,0.73717,0.86469,-0.10451,-0.30862,0.099577,-0.20641,0.2782,0.60979,-0.66564,-1.0482,-0.69115,-0.33409,0.81366,1.8085,-0.053476,-0.33409,0.27799,-0.51266,-1.0481,-0.46154,0.15031,1.1197,1.273,3.2881,-0.41043,-1.4563,-0.46158,-0.92082,-0.92088,-1.2778,-0.35945,-0.053525,0.048555,1.2982,1.3492,0.53317,0.91585,1.4006,-0.76761,-1.6604,-0.8442,-0.56356,0.45662,0.22704,-0.20652,-0.84414,-0.69117,0.71171,0.60967,0.63522,1.4004,-0.86967,-0.56364,0.73728,0.68627,-0.94622,-1.788,-0.38516,-0.053451,-0.13003,-0.12999,1.2729,2.5994,0.074069,-0.69124,-2.5532,-0.79334,0.7628,1.8342,0.91585,-1.4819,-0.30847,0.27815,-0.81874,-0.41067,-0.79326,-0.13007,0.40568,0.7628,2.038,0.89024,-0.66561,-0.41059,-0.84416,-0.79318,-0.23203,0.048604,1.0945,1.1709,0.023065,-0.41058,-0.25761,0.35448,-0.94627,-0.81876,-1.2268,-0.25756,0.45659,0.68629,0.53323,0.40565,0.83936,0.45677,-0.64007,-0.84422,0.71166,-0.028047,0.12497,-0.15553,-0.56356,0.02317,0.35461,0.50749,-0.6402,-0.61455,-0.28301,0.6352,0.73734,-0.15545,0.32918,0.20155,-0.002528,-0.3341,-0.51258,-0.002461,0.023059,0.048561,-0.028011,0.25264,-0.53798,0.38005,0.76263,-0.81871,1.273,0.94141,-0.94618,-0.81875,-0.64009,-0.46162,-0.92076,-0.25768,-0.053568,1.528,1.7066,0.68638,-0.23201,-0.028066,-0.92073,-1.3287,-1.2012,-0.35954,0.048451,0.89017,0.78818,0.35463,0.40568,-0.07891,-0.51252,-0.15545,0.12503,0.22704,-0.71657,0.38007,-0.1046,0.86485,-0.002423,0.17603,0.73714,-0.53811,-1.992,-1.1247,0.22715,0.53323,0.22715,0.099559,0.55862,0.176,-0.15554,0.048525,-0.23197,-0.20646,0.8903,0.25252,0.38011,0.81376,-0.078923,-0.027956,-0.89521,-0.84415,-0.35948,-0.38503,-0.20663,0.50766,0.45662,-0.053488,-0.23201,-0.10454,0.176,-0.20649,2.2933,2.5484,-0.30858,-1.635,-1.686,-1.1249,-1.6605,-0.58915,0.78813,0.94128,0.81383,0.32917,-0.15543,0.76281,-0.41051,-0.71658,0.60955,1.5533,0.22699,-1.0227,-0.69102,-0.18103,0.38013,-0.10449,-1.1502,-0.25767,-0.079026,0.30369,1.5025,0.38011,0.48211,-0.30854,-0.46153,-0.64006,-1.2267,-0.66564,-0.18103,-0.35961,-0.28307,0.38002,0.55869,1.0689,0.68616,1.8341,0.53322,0.15058,-0.94628,-1.0993,-0.79317,-0.94616,-0.99713,-0.002558,-0.48703,0.96677,1.6044,1.5024,0.53328,-0.79309,-0.43604,-0.15555,-0.12999,-0.28297,-0.41055,-0.28311,-0.48722,0.048451,0.023059,-0.43604,0.27809,-0.25754,0.5587,1.0179,1.9873,1.9362,-0.74214,-2.0176,-2.1707,-1.5585,-0.7422,-0.71666,0.60967,0.55873,-0.02792,1.1453,2.5482,1.6554,-0.51253,-0.89517,-0.46159,0.074062,0.12499,-0.74218,-1.2523,-0.35946,-0.15537,-0.25744,-0.84414,0.9156,2.8287,1.7576,-0.76762,-1.6095,-1.635,-0.74225,-0.10461,-0.61463,-0.5891,0.40571,1.0435,1.0178,1.9869,0.074087,-0.58907,-0.56366,-0.64011,-0.18098,-0.33404,-0.18101,-0.51262,0.048518,0.43117,0.099662,0.17611,-0.38509,-0.053513,0.099461,0.17602,1.1453,0.25257,-1.0226,-0.71652,-0.028011,0.27802,0.15054,-1.0481,-0.46149,1.3747,0.99218,0.78835,-0.41044,-0.6911,0.38014,-0.69115,-0.66565,-0.43618,-0.38508,-0.28308,-0.13,0.71175,0.94128,0.17612,-0.079008,-0.64017,0.20162,1.2984,0.99227,-0.61449,-0.89518,-0.38513,0.15057,0.30363,-0.51256,-1.0227,-0.64011,-0.43609,0.94128,0.94127,0.76263,-0.74216,-0.2831,0.60959,0.2272,-0.12992,-0.25753,-0.35956,-0.41057,-0.30855,0.15055,0.074013,-0.10448,0.68625,0.35478,1.0179,0.27811,-0.5127,-0.10475,-0.028066,0.12513,-0.56356,-0.97169,-0.23198,0.48217,-0.00243,0.074026,-0.4871,-0.15553,0.7117,1.7065,0.50772,-0.18106,-0.30864,-0.94619,-0.71665,-0.23199,-0.053464,0.50767,-0.027907,-0.20646,0.45671,0.38008,-0.25763,-0.20661,0.15054,0.58419,-0.002448,-0.43603,1.273,-0.30855,-0.33403,0.30347,-0.8187,0.17611,0.048512,-1.2268,0.66076,0.60974,-0.51261,-0.92076,-0.61468,0.43118,0.55877,-0.10432,1.0433,0.71158,-0.028011,-0.10453,-0.30858,-0.4616,-0.002472,-0.20642,0.023157,0.048641,-0.078892,-0.33404,0.25248,-0.028139,-0.2066,0.022931,0.20162,-0.61459,-0.23202,0.25268,1.0435,0.32919,-0.25761,-0.48714,-0.35963,-0.23207,-0.28307,0.20164,0.63529,0.17613,0.20157,1.2984,-0.35964,-0.71669,-0.64014,-0.053488,0.074038,0.15052,-0.35954,0.023054,-0.66553,0.40562,0.074081,-0.0535,0.2271,0.76275,0.38019,-0.18103,-0.61473,-0.35964,-0.51265,0.099564,0.89037,1.0179,-0.20656,-0.92075,-0.00243,-0.20644,-0.1301,-0.94625,-0.61458,-0.18106,1.9871,1.477,-0.28299,-0.23212,-0.79321,-1.1247,-0.61461,0.17609,0.25259,0.38009,0.91568,0.83927,0.38022,-0.7931,-1.3033,-0.66562,-0.3085,0.1251,0.074044,-0.25759,0.91575,1.0178,0.12503,-0.4616,-0.30853,-0.46159,-0.23209,0.22706,0.15062,-0.23196,-0.64011,-0.81869,0.99237,2.5739,0.2016,-0.25777,-0.76779,-1.3032,-0.76762,-0.61461,-0.35958,-0.027956,0.76279,0.48214,0.53313,0.15055,0.43118,-0.94621,-0.92072,0.09957,2.9564,1.2984,-0.86974,-1.6859,-2.1449,-0.35972,0.22699,-0.38493,0.35457,0.83917,0.30364,0.50779,0.20167,0.09954,0.02301,-0.002454,-0.86969,-0.41054,0.048629,1.0177,0.55865,-0.6402,-0.92078,-0.86968,0.73731,2.4464,-0.28297,-1.0993,-0.94625,-1.2779,-0.94633,0.53307,1.987,1.3749,-0.18086,-0.48699,-0.76755,-0.20649,0.4822,-0.20654,-0.28309,-0.48715,-0.13007,0.17603,0.25257,0.43109,-0.12998,-0.385,0.4057,1.0434,0.66077,-0.13005,-0.74224,-0.53828,0.2525,-0.69096,-0.8186,0.30355,0.58427,0.20167,0.22715,-0.30862,-0.43618,-0.4361,1.4004,1.5024,-0.51263,-0.76759,-0.23195,-0.078977,-0.41061,-0.99726,0.0741,0.89032,0.81378,0.12504,0.074051,-0.10453,-0.53813,-0.71666,-0.3341,0.40563,0.27813,-0.10443,0.15059,0.55865,-0.02792,-0.13003,-0.51257,0.99237,1.4515,0.099497,-0.84426,-1.1503,-1.1503,-0.94619,-0.46157,0.83912,1.7829,0.43126,-0.12983,-0.51255,0.073965,0.60961,0.73723,-0.84417,-0.81859,-0.74203,0.76283,-0.027993,0.5076,1.5533,-0.13007,-1.0992,-1.0737,-0.76766,-0.35956,0.50774,0.63518,0.12508,-0.053495,1.579,0.58416,-0.81877,-0.66562,0.38019,-0.53804,-0.25747,-0.18104,-0.69115,-0.51267,0.15045,0.53312,0.94124,0.4822,-0.07891,0.099662,-0.66556,-0.81865,-0.13005,0.7627,0.55875,0.074069,-0.18108,-0.30857,-0.10454,-0.51266,-1.0482,0.2271,2.1657,0.94136,-0.86974,-1.0483,-0.51265,-0.35961,-0.23197,0.12513,0.48226,0.15053,0.55853,0.89026,1.426,-0.64003,-0.81866,-0.053616,-0.30861,-1.0737,-0.9971,-0.46156,1.3747,0.58414,-0.12991,0.15064,0.17615,-0.18097,0.048506,-0.13007,-0.079026,0.12511,0.60964,-0.35953,-0.64011,-0.30858,0.20146,0.66064,1.0434,0.76302,0.074197,-0.15564,-1.3035,-0.05358,-1.0736,-0.691,-0.28292,-0.69102,0.32906,0.22712,1.4768,0.27792,-0.48713,-0.20649,0.023084,2.6503,1.8341,-0.23202,-1.5074,-1.4053,-1.0227,-2.604,0.022834,2.089,2.88,0.40582,-0.46162,-0.51276,-1.1248,-0.89522,0.30363,0.099613,-0.41052,0.32907,1.1452,1.3749,-0.33401,-0.76766,-0.07907,-0.35959,-0.89507,0.4823,0.25262,-0.28302,-0.05347,-0.69124,0.58417,0.66081,0.96674,0.3801,-0.94619,-1.7369,-1.0483,0.2015,1.2728,0.53313,0.074075,0.73726,0.17604,-1.9664,-0.487,1.4005,-0.1555,-0.66571,-0.84429,-0.48716,0.68613,0.73719,0.71179,0.048641,0.074118,-0.28301,-0.078972,-0.002558,-0.51263,-0.84428,0.58425,1.477,1.5024,-0.56359,-1.5328,-1.3033,-0.18103,0.32913,0.25251,-0.10454,0.023078,1.1965,1.0689,-0.33406,-0.6657,-1.0227,-0.97176,-0.079057,0.63518,1.6809,-0.38493,0.099546,0.17607,-0.58907,-0.56356,-0.027944,-0.10453,-0.46161,-0.5635,1.3493,0.58409,-0.38506,0.60979,0.30369,-0.69115,-0.74217,-0.76765,0.27793,0.20158,0.43124,-0.20641,-0.6146,-0.20661,-0.23208,0.17603,0.48216,0.83928,0.30366,-0.10444,-0.25753,-0.15556,-0.84416,-0.56359,0.40566,1.1965,-0.053397,-1.1503,-0.97172,0.4055,1.0175,0.022992,1.1964,0.55874,-0.81868,-0.71659,-0.69108,-0.4871,0.048549,-0.53796,0.38003,0.25249,0.099559,0.38013,0.4822,0.38021,0.12513,-0.18105,0.12505,-0.079008,-0.20658,-0.61464,-0.46162,0.048458,0.22713,1.8851,1.5536,-0.7421,-1.5074,-1.839,-0.94637,0.048482,0.63524,0.40574,-0.46153,-0.30861,0.27804,2.3186,2.6248,0.45675,-0.97165,-1.5583,-1.6859,-0.61467,0.27805,-1.2013,-0.027998,0.86474,0.50772,-0.43597,0.38002,0.6096,0.4312,0.50765,-0.10456,-1.0226,-0.41044,0.78828,0.78823,-0.028011,-1.0738,-1.0483,-0.25754,-0.51246,0.76267,0.17606,-0.078972,-0.027969,0.09954,-0.35963,-0.71677,1.7065,0.96695,0.48216,-0.20658,-0.9462,-0.99716,-0.74217,0.15048,-0.028005,0.38006,0.20163,0.32927,0.83936,1.0434,0.15049,-0.86977,-0.81876,-0.23205,-0.10447,0.074033,0.023005,-0.027993,0.2017,0.099632,0.20166,-0.078959,-0.56367,0.022919,0.25255
-0.13,-0.33404,-0.15551,0.023023,0.074038,0.074044,0.12507,0.12508,0.023072,-0.00243,-0.232,-0.20651,0.074033,0.22706,0.023005,-0.027974,0.09954,0.048536,0.22708,0.099564,-0.002448,-0.10448,-0.13,-0.1555,-0.18101,0.048536,0.22707,0.12507,-0.078959,-0.078953,-0.12999,0.023017,-0.38508,0.074044,0.15056,0.3546,0.3291,0.20159,-0.10445,-0.232,-0.15549,-0.053476,-0.078972,-0.15549,-0.23204,0.22706,0.32911,-0.15548,-0.078984,0.17609,0.17611,-0.30852,-0.25755,-0.053531,0.22707,0.17607,0.20161,-0.10446,-0.13,0.20158,0.12509,-0.053446,-0.2065,-0.38508,-0.23205,0.27805,0.25262,0.3291,-0.002418,0.048567,0.12507,-0.15553,-0.15553,-0.35955,-0.43607,-0.13003,0.22708,0.35465,0.22711,-0.20649,-0.053433,0.27811,0.32912,0.12505,-0.5891,-0.61469,-0.35961,0.048494,0.40566,0.38024,0.40569,0.12507,-0.027987,-0.23205,-0.23202,-0.027969,0.023047,0.12504,0.20158,-0.18099,-0.38502,-0.15545,0.20156,0.15059,-0.15552,-0.53815,0.22708,0.074033,0.35459,-0.18098,-0.18097,0.20161,0.15056,-0.13005,-0.30855,-0.053464,0.83922,0.53317,-0.53803,-0.58909,-0.41058,0.81371,0.60973,-0.35953,-1.4309,-0.58916,0.329,0.55871,1.0943,0.40575,-0.64004,-1.0737,-0.61468,-0.1811,0.9157,0.38011,0.66077,1.4768,-0.33393,0.023139,-0.15545,-1.1758,-1.4054,-0.8952,-0.58913,-0.48714,0.60962,1.7829,1.579,1.1199,-0.053433,-0.69108,-0.69107,0.2271,0.27815,0.2271,-0.23218,-0.86974,-0.15544,-0.23199,-0.86975,-0.23203,0.83933,0.12499,-1.1758,-0.53809,-1.0993,0.63523,2.9819,2.5227,-0.48703,-0.33407,-1.2778,0.48219,-0.76767,-1.533,-1.0994,1.477,2.3188,0.53346,-0.64014,-0.35968,-0.69118,-1.788,-0.15565,-0.23199,-0.28305,-0.002412,0.099491,-0.053519,0.71182,1.5025,2.8544,2.9053,-0.84411,-1.9921,-2.0688,-2.5022,-0.97178,-1.0992,0.048598,0.71178,0.55869,1.4259,1.3749,-0.92067,0.50766,-0.48703,-1.1247,0.81379,3.4665,1.5789,-0.64021,-1.0737,-1.8645,-2.4767,-1.9156,-0.5382,0.022961,0.099546,1.324,1.0944,0.99246,0.15069,-0.5381,1.4513,1.1455,-0.33401,-0.79322,-0.35975,-0.002485,-0.02798,0.45666,1.4004,-0.35948,-1.0993,-1.3034,-1.635,-1.2268,0.60965,0.17614,-0.23198,0.7627,-0.053506,-0.078984,1.4004,2.4719,1.579,-1.0737,-1.89,-1.1248,0.27805,1.3239,1.426,0.023023,-1.4309,-0.71663,-0.3341,-0.97191,-1.3543,0.27824,2.7014,0.27816,-1.8135,-0.92076,1.3237,1.0176,-0.28302,-0.18098,0.12514,-0.053384,-0.35943,0.30366,-0.4106,-0.74215,0.53321,1.6554,2.5482,0.55864,-0.71673,-1.0737,-1.941,-1.941,-0.053513,1.1198,1.2218,-0.63999,-0.74211,0.4821,0.20153,-0.99719,-0.74211,3.1349,1.5025,0.2271,0.073879,-1.7369,-2.2471,-0.51259,2.9819,0.68624,-0.97172,0.89027,-0.84423,-2.5531,-1.431,1.2727,0.94123,0.48219,0.81383,1.1455,-0.64007,-0.74218,0.66077,-1.0737,-1.0227,-0.13013,0.3035,-0.053458,0.1506,-0.002387,-0.33406,1.6809,0.32907,-0.53815,1.4004,2.4463,-0.53805,-1.3288,-0.35962,0.20167,-1.5838,-1.4819,-1.584,-0.46159,0.048525,0.63525,2.1912,2.5737,0.99246,-0.12993,-0.71665,-1.0738,-1.6349,-1.1504,-0.10465,0.55851,2.0891,2.0127,0.25284,-1.8133,-0.64013,0.58414,0.27807,-1.0228,-0.74221,0.43118,1.1709,-1.4307,-1.3288,-0.2831,0.22695,-1.0228,0.89026,1.5024,0.6353,0.048592,0.83925,0.58409,-0.99721,-0.99715,-1.2522,-0.41052,-0.18102,-0.10457,1.1198,1.8084,1.2984,-0.8187,-2.196,-1.2522,0.30366,1.0944,0.22713,-0.00257,1.2471,-1.1247,-0.99723,0.048549,-0.13002,0.023047,0.86488,1.6811,-0.10447,-0.078996,-0.5637,-1.4819,-1.3543,1.0944,1.9871,1.6299,-0.9462,-1.9411,-1.6094,0.58408,1.63,1.681,-0.81852,-1.2777,-1.1756,0.55862,-0.38515,-0.69119,-0.76775,-0.30848,2.2932,2.0381,0.66072,-0.28305,-1.2523,-0.9973,0.81373,0.53307,-0.56359,-0.89507,-0.41043,-0.6146,-0.25756,0.76271,0.17601,-0.74224,-0.56361,1.6811,2.8543,1.0433,-1.0993,-1.6349,-1.686,-0.86983,0.022907,0.53318,0.91595,1.2985,0.40572,0.35453,0.30353,-0.30861,-1.9154,-0.86977,-0.25763,0.12514,0.68622,-0.002363,0.074013,0.89021,-0.56366,0.20151,0.94131,0.22719,-0.53807,-0.58912,0.71173,0.30366,0.43113,0.43109,-0.99727,0.20161,-0.18102,-0.38505,-0.81866,-0.69113,-0.51262,0.22707,2.1911,-0.053513,-0.69118,-0.51263,0.4822,2.1147,1.7066,-0.71667,-0.89526,-1.3034,-0.94622,-0.84411,-0.41054,0.55857,0.76273,0.68626,0.43123,-0.18095,-1.9155,0.17597,2.6757,1.2729,-0.71671,-1.2013,-0.12998,0.046696,-0.20832,-0.18092,-0.3086,0.074093,0.25261,0.43111,0.40563,-0.79319,-0.48716,-0.18105,0.048549,0.91584,0.94135,-0.13007,-0.46155,-0.027931,-0.10447,-0.92068,-0.33402,0.12509,0.78823,0.45662,-0.30854,-0.33406,-0.13004,0.12508,0.22704,0.50752,0.78825,-0.35948,-0.48702,-0.28309,-0.00251,-0.64005,-0.53803,-0.053464,-0.15549,0.074057,0.073977,0.22718,0.60973,0.35451,0.55864,0.15054,-0.053495,1.2219,-0.20652,-1.7625,-0.64006,0.17609,0.83911,-0.28295,-1.3287,-0.58906,1.0944,0.073989,-0.28313,-0.94628,-0.20656,1.2474,1.0179,0.76277,-0.12999,-0.35956,-0.053555,-0.38515,0.38013,0.60969,-0.64013,-0.66555,0.48218,0.35461,-0.5891,-1.0993,-1.5584,-0.86972,1.732,2.4208,1.8595,0.94118,-0.9717,-1.3288,-1.2523,-0.81868,-0.51271,-1.1758,-1.0481,0.27806,2.2676,2.2932,0.60972,-1.3034,-0.002387,1.4514,0.83919,-0.18106,-1.2778,-0.56362,-1.4563,-1.6349,-1.0992,2.0892,2.1401,0.30358,0.45669,-0.20645,-1.482,-1.4564,-0.81878,1.1965,1.6556,0.91579,-0.23198,-0.8442,-0.43616,-0.10449,0.22708,-0.053446,0.22708,-0.43609,-0.74209,-0.18102,0.4567,1.0178,0.40563,-0.12988,1.8849,0.99205,-1.2778,-2.5276,-1.6858,1.4771,1.3239,0.30364,-1.0228,-0.18109,-0.2831,-0.33413,-0.74216,0.40575,0.71173,0.94125,-0.053458,-0.46161,1.1708,0.53318,-0.66558,-0.5381,-0.35957,-0.46156,0.048512,2.0637,0.2527,-1.737,-1.5075,-0.48719,1.2219,0.91576,0.45661,0.55861,0.17598,-0.7167,-1.5328,-1.5838,0.074111,0.45667,1.5789,2.2678,0.40565,-0.58915,-0.99725,-0.46162,-0.10453,-0.89523,-0.46162,0.58422,0.86477,0.099588,-0.58905,0.40574,-0.002461,0.45655,-0.10453,-0.28308,0.30353,-0.07891,-0.18102,-0.002443,0.17607,0.63523,-0.33404,-0.97174,-1.3289,-0.76763,2.4716,1.6554,-0.078953,-0.58898,-0.71649,-0.28303,-0.38516,-0.94628,-0.56358,0.35464,0.66067,1.3494,0.27808,-0.74217,-0.0791,0.99227,-0.43596,-0.35949,-0.18103,-0.30858,0.15059,0.023035,0.43114,0.94143,0.71179,0.40565,-0.76775,-0.66576,-0.74223,-1.0993,-0.69113,-0.12994,-0.053384,0.8904,1.1454,-0.69126,-0.33418,0.89024,2.0127,1.0179,-1.737,-1.941,0.50772,0.73718,0.40561,-0.30862,-1.1248,-0.6656,0.50779,0.6863,0.63518,-0.56364,0.50757,0.50763,-0.92077,0.023041,0.38011,-0.1044,-0.6655,-0.1044,1.1198,0.91574,-0.8186,-0.76785,-0.58933,-0.23195,-0.46146,0.12521,1.0945,-0.18101,-0.30865,1.1197,-0.25763,-0.38506,0.22714,0.20169,-0.33401,-0.43609,0.17613,0.17611,1.5024,0.83925,-0.15557,-0.15564,-1.686,-1.9919,0.66077,1.681,0.048629,0.53326,-0.1301,-1.3034,0.15053,0.58419,-0.20654,-0.53806,0.43122,0.12509,-0.48702,0.15064,-0.10448,0.86467,0.63502,0.45653,-0.12999,0.27828,-0.48695,-0.61462,-0.79326,-0.58916,0.58419,0.89032,-0.053525,-0.56364,0.35467,0.40561,0.53304,-1.0737,-0.92065,-0.20642,0.60977,1.3749,0.76266,-0.053562,-0.61469,-0.20652,0.074075,-1.0992,-1.9408,0.60959,2.2676,0.20158,0.099608,-0.20642,0.38019,-0.15567,-0.66564,-0.51254,-0.10452,-0.028005,-0.43609,-0.35951,1.6045,0.76272,-0.74221,-1.0738,0.5587,1.1965,0.60973,-0.56359,-0.43612,-0.71676,0.43116,-0.38515,-0.53818,0.43118,0.20166,-1.1247,0.25277,1.477,0.53317,-0.30862,-0.18109,0.073971,-0.38513,-0.53813,-0.79316,-0.078953,1.2475,0.2782,-0.51256,-0.33409,1.0177,-0.18102,-0.56369,-0.25767,0.68619,1.0179,-0.13001,-0.33407,0.12509,-0.61458,-0.46156,-1.1502,-1.2014,0.099521,3.186,3.6451,0.9923,-1.9411,-2.4512,-2.9613,-2.0685,2.4717,1.6555,-0.41052,-0.002418,1.2474,-0.10453,-0.38513,-0.53814,-1.2269,-0.48714,0.76282,1.4006,1.1453,0.074038,-0.58912,-0.46158,-0.35951,-1.2523,-1.1503,1.2982,0.5587,0.32921,-0.25746,0.40574,-0.51265,-1.2524,-0.7167,2.2167,2.3187,-1.1247,-1.4053,-0.15549,-0.4871,-1.0483,-0.30863,0.58419,0.35468,-0.35942,0.12496,0.66067,0.73731,0.30371,-0.15549,-0.76771,-0.18103,0.38016,0.66078,0.12507,-0.2831,-1.0228,-0.15549,0.53314,0.048469,-0.25763,-0.56362,-0.41043,0.2527,0.63524,0.12512,-0.18102,-0.13003,0.12503,0.07402,-0.53814,0.45665,-0.002528,-0.71667,1.3239,3.3646,1.12,-0.33404,-2.7828,-3.5991,-1.6861,1.7065,0.45681,-0.25746,0.22701,0.27813,1.6045,0.48216,-0.53817,-0.46157,-0.334,-0.18096,0.78826,0.45665,-0.43607,-0.35957,0.074013,-0.15559,-0.41065,1.8341,2.1147,-0.9716,-1.7879,-1.2778,-0.25766,-0.51272,-0.10443,1.1199,-0.23208,-0.15562,-0.53817,2.1657,2.829,-0.56351,-1.6094,-2.0941,-0.74224,0.176,0.22705,0.2781,-0.43606,-0.23198,0.81379,2.3187,0.50768,-0.027956,-0.30851,-0.99719,-1.2013,0.048445,-0.48711,0.43116,0.6353,-0.41054,-0.64021,-0.079124,-0.053549,-0.28301,-0.10441,0.58427,1.2474,-0.15553,-0.053451,-0.053476,-0.20655,0.048487,-0.23205,-1.1248,-0.35957,0.7627,0.89031,-0.74214,0.30366,0.63522,0.12507,-0.53805,-1.0738,-0.71669,0.3291,0.94134,0.3291,0.15057,-0.66565,-1.0738,1.4004,2.0126,-0.53808,-0.97179,-0.99726,-0.12997,-0.053476,-0.23199,-0.25748,0.27814,0.8138,1.4515,0.074075,-0.30866,0.73705,-0.28315,-0.30852,-0.41036,-0.51254,-1.7624,-0.10448,2.0381,1.0944,-0.30863,-0.5893,-0.15564,-1.4053,-1.1247,0.55878,2.3443,0.35468,-1.0228,-1.4565,0.53306,2.4463,0.73723,-0.46164,-1.2523,-0.56352,-0.078861,0.40565,-0.48716,-0.25761,0.07394,-0.33409,-0.53807,-0.078977,0.023133,0.20171,0.73734,0.45669,-0.079075,-0.079081,0.91575,-0.078984,-0.18106,-0.97182,-0.71671,1.426,0.023108,-0.79312,-0.89518,-0.41055,0.023041,0.3801,1.6044,0.50764,-1.2013,-1.3033,0.12513,1.6811,0.66076,-0.66569,-0.71668,-0.38512,-0.3086,-0.33405,0.048598,0.81381,0.55869,0.30359,-0.002454,-0.92059,-0.48722,1.0177,1.2729,0.73729,-1.1503,-1.2523,-0.79312,0.27812,-0.20658,-0.028018,0.09957,0.50771,0.81378,-0.15555,-1.2267,-0.41061,0.45658,0.32905,0.17611,-0.3085,0.53326,-0.28306,0.15052,0.32915,0.91587,-0.12999,-0.027993,-0.84431,-0.38507,-0.079039,-0.079021,-0.2575,-0.35958,-0.51257,-0.027889,0.43117,0.43113,0.32915,-0.35956,-0.079002,1.1709,0.25255,-0.56372,-0.12994,0.074149,-0.53811,-0.56365,0.30361,0.30366,1.0431,0.68605,-0.4871,-0.35949,-0.20646,-0.66556,-0.76761,0.25268,-0.15542,0.09954,-0.25761,0.81371,0.20162,-1.2779,-1.1504,1.579,3.4667,-0.078904,0.15059,-0.15554,-1.7115,-1.5585,-0.9718,-0.20655,-0.46153,-0.053446,0.4567,0.58424,0.71173,0.66071,0.58417,-0.23205,-0.25748,-0.002467,0.91575,-0.20646,-0.25751,-0.15556,-0.20662,-0.41059,0.35454,0.4056,-0.027871,-0.94612,-0.64001,-0.6656,-0.64021,0.55867,1.7575,1.2729,0.048531,-0.58921,-0.66573,-0.61462,-0.10439,0.32916,0.20161,-0.53812,-0.079008,-0.12999,0.32917,1.0689,1.1707,-0.002485,-0.69115,-0.94622,-0.46155,0.40566,-0.41054,-0.15556,0.43109,0.12504,-0.4361,-0.56352,-0.10449,-0.15559,0.12515,2.0637,0.71173,-0.46167,-0.28319,-0.13019,-1.4053,-1.1246,0.96698,2.3443,0.12507,-0.66567,-0.86979,-0.84426,-0.43612,-0.81879,-0.35959,1.1454,2.1147,0.3802,-0.30856,-0.4106,-0.61467,-0.10453,-0.33405,-0.84419,0.25263,1.7576,0.43117,-0.28308,-0.99726,-0.6656,0.68622,0.48206,-0.28307,-0.43608,-1.0226,-0.002552,-0.18109,-0.02792,1.9872,1.6556,-0.053384,-1.533,-0.23223,0.55853,-0.23213,-0.92068,-0.58905,1.4516,1.069,-0.9462,-1.2268,-0.38513,0.58409,-0.053519,-0.69116,-0.25758,0.76269,0.40571,1.1964,0.43124,0.048476,-0.10461,-0.283,-1.2523,-1.5839,-0.94626,0.9668,1.8087,1.7576,0.27813,-0.61461,-0.99729,-1.1248,-0.8698,-0.46172,0.2015,1.7831,0.86477,-0.41053,-0.5635,-0.48703,-0.18098,-0.28307,0.048525,-0.28308,-0.66556,0.7882,2.7778,2.1403,-0.79326,-1.1759,-1.3033,-0.86975,-0.99726,-1.2267,-0.53809,0.7117,1.0688,0.53326,0.12508,-0.079008,0.3546,-1.0992,1.1962,1.7063,0.3803,-1.0482,-1.0737,-0.61453,-0.28302,0.3036,0.45664,-0.002534,-0.99732,0.023023,0.66074,0.22717,-0.20655,-0.18101,0.35465,0.45656,-1.3288,-0.2575,0.96685,-0.053451,0.35467,0.71175,-0.89519,-1.0482,-0.23207,0.63518,-0.30855,0.81372,0.20156,1.3493,0.48211,-1.1246,-1.0737,-1.2522,-1.1501,1.0431,0.37995,-0.38505,0.048689,0.96692,0.68626,-0.41055,-0.23205,0.048482,0.048555,0.40574,0.35467,-0.20649,0.38006,-0.23209,0.2271,-0.15546,-0.84417,-0.71668,0.27809,-0.69121,-0.30858,1.0944,1.2475,-0.56367,-0.99728,-0.12998,0.48219,-0.53807,-0.89516,0.58414,1.9614,1.1708,-0.078984,-0.66561,-0.30857,-0.027956,-0.46153,-0.51258,0.25262,0.27815,0.17607,0.12502,0.048463,-0.10455,-0.86971,0.099626,0.45673,0.32918,0.63524,-0.43611,-0.38508,-0.28309,-0.58921,-1.3033,-0.35952,0.71177,1.0688,1.681,-0.07891,-1.3288,-0.2831,0.60968,0.66077,0.048531,0.15035,-0.53817,-0.48697,0.023133,-0.028005,-0.76776,0.71171,1.3494,-0.23192,0.30365,-0.15549,-0.30856,-0.86969,-0.71661,0.27806,1.6043,-0.23204,-0.18104,0.32913,0.86485,-0.25744,-1.5839,-0.84415,-0.002461,0.12505,-0.35959,-0.053513,2.0381,1.5024,-0.5381,-0.41058,-0.002461,-0.20652,-0.64011,-0.76761,-0.10452,0.38003,0.45661,0.86484,0.09965,-0.74218,-0.99721,-0.46159,0.35461,0.15053,-0.74214,0.94133,2.7014,0.94126,-1.1248,-1.0738,-0.4617,-1.5328,-0.46156,0.48211,-0.053451,-0.20653,-0.078959,0.60975,1.3749,0.99229,0.17606,-0.69114,-0.89521,0.99241,1.0688,-0.79327,-1.0227,-1.1247,-0.84424,-0.30852,0.43126,0.73731,-0.13002,0.35455,0.278,-0.61465,0.6608,0.53321,-0.078977,-0.25759,-0.33404,-0.35951,-0.30855,0.25251,0.4566,0.12516,-0.33404,-0.13,0.048585,-0.6401,-1.2013,0.53323,3.4154,1.1963,-1.1248,-2.5531,0.1251,1.5025,1.0688,0.048518,-1.3544,-1.8645,-0.69111,0.099662,-0.35945,1.0177,2.3696,0.71181,-0.89516,-1.8645,-0.23198,0.78827,0.30352,0.099503,0.89026,-0.23202,-0.51255,-0.46156,-0.69116,-0.71671,0.86481,1.6811,0.023114,0.40571,0.25257,0.15046,0.022956,-1.3034,-1.4564,1.4515,0.58424,-0.5891,-0.43604,-0.58913,-0.81875,-0.2321,1.3494,1.2474,-0.028036,-0.48711,-0.51252,-0.053421,-0.002412,-0.53808,-0.5126,0.25256,0.86465,1.4004,0.91584,-0.58909,0.27812,-0.30852,-1.1758,-0.9717,-1.1248,-0.9463,-0.10438,2.3442,2.3697,0.68627,-0.35948,-1.6094,-1.533,-0.64024,0.48224,0.94139,0.91566,0.022894,-0.58907,0.17612,0.048598,-0.2575,-0.28303,-0.23201,0.074087,0.048561,0.32907,0.60968,0.86471,0.35464,-0.69107,-1.3289,0.227,1.3748,0.73726,-0.53807,-1.2522,-1.2013,-1.4818,0.023096,1.579,0.71176,0.35458,-1.0483,-0.53817,1.9871,1.1198,0.022998,-1.1247,-0.028011,-0.33409,-0.99716,-0.46163,-0.15549,-0.43601,-0.002381,0.099637,0.074026,-0.18114,1.5279,1.579,0.2271,-1.2013,0.17609,0.30363,-0.23207,-0.81859,-0.74206,-0.66565,-0.43611,0.6352,0.7627,0.17605,-0.51252,-0.86969,0.81354,1.2472,0.35465,0.7629,-1.0226,-1.2778,-0.2321,-0.002436,1.0945,0.83931,-0.69121,-0.89521,0.55862,0.15045,-0.232,-0.002461,-0.3341,0.15061,0.3291,-0.027969,0.83928,-0.43604,-0.74211,0.63507,0.048604,0.074051,0.20165,-0.30858,-0.20653,0.20168,-0.027895,-0.64015,-0.64026,0.38006,0.48218,0.023017,0.86471,-0.38504,-0.25741,0.25268,-0.053476,-0.35965,-0.84426,-0.5126,0.66074,0.38005,0.63508,0.023072,0.074167,0.15075,0.73734,0.12516,-0.46162,-0.92082,-1.2014,-1.5585,1.0943,5.0481,0.40591,-1.5584,-1.3801,-1.5075,-1.2778,-0.84418,0.76269,1.2219,1.0178,-0.027944,-0.35946,-0.74206,-0.20653,0.40564,0.50758,0.68607,0.53311,-0.69108,-0.30845,-0.81864,-0.25747,0.45669,0.25259,0.45664,0.66062,-0.46169,-0.79319,-0.43603,0.32918,0.38023,-0.25752,-0.5382,0.48209,1.1709,-0.18096,-0.61461,-1.3288,-0.66561,1.8851,1.9106,-0.15556,-1.7115,-0.2577,0.15058,-0.56354,0.023065,1.0178,0.43115,-0.9972,-0.61461,-0.81873,0.8393,1.7575,0.048555,-0.81866,0.099375,0.25264,-0.41053,-0.89517,0.81392,0.40575,-0.81871,-0.81881,-0.13012,1.0687,0.91581,-0.38506,-0.61457,-0.002443,0.3036,-0.94623,-1.0227,3.5941,2.2167,-0.74216,-1.3544,-1.686,-1.5584,-1.8135,0.17611,2.1147,1.7576,0.55861,0.25256,-0.69125,-1.0483,-0.64006,-0.30844,-0.53807,-0.053384,2.0892,1.8596,-0.23213,-1.1504,-1.0483,-0.89522,-0.28306,-0.74216,-1.2268,1.0689,1.8851,-0.46163,0.66077,2.1147,2.7523,-1.0483,-2.6807,-2.3236,-1.0993,-0.28309,-0.002461,0.15059,0.099601,1.4003,1.3492,0.45672,0.43129,-0.027871,-0.30852,-0.4871,-0.53809,-0.6147,-0.5636,0.60969,0.53315,0.55866,-0.33408,-0.15549,0.35463,-0.35961,-0.20656,-0.18095,-0.15544,0.099668,-1.2523,-0.89526,0.76268,2.0125,1.4004,0.89033,-0.38499,-1.3288,-0.76771,-0.58919,-0.76769,-0.33404,0.30355,0.6352,0.048561,1.2985,1.1454,-0.30856,-0.38513,-0.38517,-0.89523,-0.41055,1.3239,0.76271,-0.74213,0.25265,-0.81864,-0.8442,-0.41053,0.43104,0.71168,0.20158,-0.7931,-0.64007,-0.15545,-0.027974,0.53311,1.3494,0.38015,-0.46164,0.023017,0.55859,0.86472,-0.41052,-0.41045,-0.43604,-0.41056,-0.38508,0.048512,-0.30858,-0.4106,-1.5329,-1.2524,1.1453,2.8033,1.5536,0.40574,-0.5381,-1.5584,-1.7626,0.073989,0.63511,1.4004,0.66081,-0.002307,-0.487,-0.64012,-0.81871,-0.35964,-0.23212,-0.00251,0.073965,0.25253,0.71179,1.018,0.83931,0.12509,-0.25754,-0.3851,-0.48713,-0.1556,-0.56362,-0.51256,-1.7112,0.32905,2.7777,1.0434,-0.28304,-0.97174,-0.12993,-0.07891,-0.30852,-0.48714,0.099448,-0.41063,-0.97171,0.27817,1.0434,0.32905,0.58419,1.2474,-0.15554,-0.71671,-1.0483,-0.58918,-0.38504,-0.28298,-0.43603,0.40564,0.58416,0.023096,0.78822,1.7575,0.25261,-1.0482,-1.3798,-0.43602,0.4567,-0.23213,-0.35975,-0.079057,0.99237,1.1454,-0.12995,-1.2012,-0.94618,-0.46155,0.023047,0.78817,0.60968,0.12503,-0.3341,-0.30851,0.27806,-0.079057,-0.25757,0.048653,1.2985,2.4208,0.50766,-1.788,-2.2983,-1.8136,1.12,1.0945,-0.15545,-1.635,-0.99724,0.55862,0.99222,0.15049,0.3547,1.6046,1.2983,-0.25756,-0.99719,-0.71665,-0.3086,-0.35964,-0.20653,-0.4361,-0.23204,0.35473,1.5026,0.38014,-0.15551,-0.20655,-0.69119,-0.64023,0.27806,0.58421,0.4822,0.81384,0.048536,-0.71677,-1.5839,-1.9665,-0.33407,3.0585,3.3136,0.91578,-0.79332,-2.5023,-2.1707,-1.5584,0.12516,1.8852,1.2984,0.48225,0.1506,-0.64009,-1.0994,-0.64023,0.45662,0.55866,0.43115,0.35467,-0.23193,0.38025,0.12503,-0.13002,-0.3086,-0.71673,-0.99727,0.04858,1.8851,0.55876,0.09965,0.53307,-1.1759,-1.8645,0.22708,0.5332,-0.027969,0.73725,-0.027969,0.17611,-0.12999,-0.43612,-0.3851,-0.079008,0.38009,0.4822,-0.46156,-0.56353,-0.23194,1.8851,0.9668,0.15056,-0.2065,-0.002644,-0.76782,-1.8645,-0.38504,0.9414,-0.053427,-0.28303,0.17611,0.023065,-0.028066,1.7065,-0.38506,-0.58914,0.048512,-0.43595,0.27809,1.9103,-0.002448,-0.71657,-1.2523,-0.053433,0.58421,-0.3341,-0.2321,0.15055,0.27815,-0.15549,-0.12999,0.04861,0.07402,-0.76773,0.99226,1.9106,0.60977,-0.41054,-0.2575,-0.81873,-0.30856,-0.51269,-0.84418,-0.56361,0.15055,0.17607,0.15062,-0.23198,0.3801,0.023078,0.35466,1.2984,0.94137,-0.053549,-0.053519,-0.28312,-1.1248,-0.92073,0.50776,0.38017,-0.027974,0.66074,-0.3086,-2.4258,-1.0994,2.5993,3.4411,-0.74209,-1.9919,-0.46171,0.15052,-0.41051,-0.56361,-0.15558,-0.028054,0.32905,0.48216,0.86484,0.73739,-0.13002,-0.28306,0.25268,0.17614,-0.053544,-0.6402,-1.9155,-0.84426,0.78818,4.0532,2.2677,-1.3798,-2.8338,-2.0432,0.45671,0.12513,-0.18093,0.099637,-0.92074,-0.41063,1.2728,0.8392,0.55868,0.40568,-0.002436,-0.41057,-0.64012,-0.25751,0.3547,1.273,-0.38488,-0.30863,-0.18116,-0.078984,-0.61458,-1.6349,-1.3799,1.2984,3.543,1.579,-0.53812,-1.5329,-1.3289,-0.71665,-0.48712,-0.71665,0.5842,1.4004,0.50768,-0.79316,-0.43611,1.1965,0.22713,-0.4616,-0.43612,-0.6657,-0.43613,1.1198,0.86476,1.1965,0.1762,-0.8952,-0.61474,-0.6657,-0.79317,-0.66571,-0.20653,0.27818,1.5536,1.3749,0.17609,-1.0993,-1.0993,-0.28309,0.73725,-0.3851,-0.18101,0.25266,1.2473,1.0179,0.48211,-1.0482,-1.7624,-1.0993,0.66066,0.074057,-0.07899,0.15064,-0.20639,-0.18092,-0.46157,-0.33409,2.2166,2.7778,0.4821,-0.10462,-0.99727,-0.9717,-1.2523,-1.3798,-0.9462,-0.56362,-0.41057,1.732,2.2421,-0.33404,-0.58914,-0.48716,-0.28306,0.099534,0.81383,-0.1555,-0.002472,0.09954,0.048549,0.0485,-0.33408,-0.64011,0.20164,-0.53805,-0.18095,1.732,1.8595,0.45664,-1.3544,-1.3544,-0.92082,-0.7932,-0.38503,-0.56354,-0.12994,1.8851,1.7574,0.30363,-0.58909,-0.79318,-0.46148,0.48223,0.22702,-0.7167,-0.64019,-0.33418,-0.15556,0.73732,1.375,0.63523,-0.15549,-0.69116,-0.25757,-0.89524,-0.71669,0.12511,1.2475,1.4515,0.099534,-0.48713,-1.1503,-1.0228,-0.66561,-0.33409,-0.76768,1.1964,2.1657,1.0178,0.83933,-0.86975,-1.0738,-0.66567,-0.46162,-0.97177,-0.30849,-0.10446,0.53314,2.2932,3.4666,-0.15545,-1.6605,-1.4819,-1.1503,-0.97176,-0.43609,-0.79321,0.17614,0.60984,1.0942,0.73718,-0.027944,-0.385,-0.69118,-0.86977,0.76272,2.0891,2.1658,0.60977,-1.6094,-1.584,-1.2269,-0.86975,-0.69112,-0.51259,0.17615,0.35465,0.43112,1.0943,1.834,0.099534,-1.1247,-0.51254,0.35468,0.48216,-0.38509,-0.64015,-0.33404,-0.38507,-0.23205,0.22705,1.0688,-0.43616,-0.41066,0.2782,2.727,0.76285,-1.3288,-1.6605,-1.6605,-1.6095,1.1708,3.2625,0.66077,-1.0737,-0.89523,-0.66562,0.099448,0.17606,-0.078928,-0.053439,-0.43601,0.02295,0.30353,0.43123,1.7067,1.0434,-0.13005,-0.66573,-0.79324,-0.86973,-1.4565,-0.41059,0.53313,1.1965,0.73737,0.58426,0.40566,-0.43618,-0.71678,-0.89532,-1.1503,-0.66562,0.99237,1.1199,-0.00243,0.50777,0.074013,0.073904,-0.079039,0.074062,-0.66553,-0.41056,0.30353,-0.28299,-0.61458,0.53316,0.71178,0.30353,0.27801,0.76274,0.25269,-0.18092,-1.2523,-0.76771,-0.8187,-0.69118,-0.28309,-0.25761,0.12504,1.3495,2.4462,1.4515,-0.46157,-0.64019,-1.7114,-1.5839,0.68622,1.0944,0.50771,-0.12999,-1.3544,-0.69127,0.45662,2.0382,-0.33402,-1.2268,-0.58913,0.27813,0.9923,0.25259,-0.33408,-0.334,-0.43607,0.48219,-0.15548,-0.74223,-1.0738,0.45664,1.8851,3.7726,0.66069,-1.3799,-2.1195,-1.3798,-0.94619,-1.0482,-0.56367,0.81372,0.68624,0.55868,0.81368,0.60962,-0.41057,-0.30847,1.2986,0.58424,-0.99722,-0.5127,0.99229,0.27812,0.12512,-0.69111,-1.7626,-0.48725,0.86481,-0.58905,0.71169,-0.15546,0.17617,-0.078935,-0.25752,-0.23207,0.38012,0.099564,0.20163,-0.28302,-0.25752,0.22706,0.96672,0.6351,-0.10447,-0.25745,-0.41048,-0.58905,0.50768,0.71169,-0.13016,-0.66566,0.023047,0.074093,0.68633,-1.1247,-0.94627,0.073917,0.074051,-0.25757,0.099369,2.6502,1.9617,0.2017,-0.92074,-1.533,-1.6604,-0.66562,-0.53802,-0.5125,0.68625,2.5481,0.40558,-0.97172,-0.51253,0.94129,0.6097,-0.2066,0.81343,-0.33403,-1.5071,0.86477,-0.793,-0.2066,0.48195,-0.97176,-0.20636,2.0127,0.83928,-0.84421,-0.9718,-0.92078,-0.61455,0.89018,0.12494,0.12503,-0.027962,-0.20654,1.1708,1.1964,0.63532,-0.38502,-1.4563,-0.25768,0.09954,-0.18086,-0.58905,-0.64023,-0.13004,0.91564,1.3749,0.099632,-1.4052,-0.13013,-0.97183,0.58405,0.89029,0.40583,-0.027931,0.22704,-0.33408,-1.2014,0.35465,0.63526,0.58421,-0.61459,-0.43607,-0.4871,-0.41061,0.68621,0.60974,0.48216,0.66074,-0.028042,-0.58928,-1.0738,0.81382,0.50776,-0.6911,-0.66553,0.53314,0.78816,-0.18103,-0.81866,-0.41056,0.71171,-0.23205,-0.23195,0.40557,0.27802,1.0178,0.15074,-0.53805,-0.41066,-0.53814,-0.13003,-0.48712,-0.86965,0.71188,0.89032,0.38001,-0.97179,0.76268,0.68616,-0.4872,-0.48711,0.55876,-0.48698,0.15071,0.91584,-0.10452,-1.2268,-1.1503,-0.15556,0.32904,0.55859,0.91567,0.94142,1.8087,0.2782,-1.2523,-1.3034,-1.0739,-1.0738,0.4567,0.22718,0.22714,0.099559,-0.23196,0.60963,-0.5636,-0.02798,0.96674,0.86479,0.22708,0.78834,-0.56365,-0.58916,-1.0227,-1.3798,-0.79324,2.7013,0.99234,-0.15548,-0.71665,-0.38508,-0.76766,-0.64018,-0.5126,0.22703,0.99217,0.96671,-0.33393,0.30356,-0.48705,0.22724,1.0435,1.3495,-0.10442,-0.92072,-0.58925,-0.74228,-1.3545,-1.2269,1.375,3.2116,1.2219,-0.20665,-1.1248,-1.89,-1.5329,-1.0738,-0.58921,-0.10456,0.074111,1.0179,3.8744,0.63524,-0.4869,-0.53798,-0.1554,-0.7422,0.3545,-0.28319,-0.92071,-0.61464,-0.2065,0.074136,-0.027876,0.048647,0.76263,0.20146,0.83917,0.43105,-0.25756,-0.56358,-1.0226,-0.1554,0.58432,1.0944,-0.053525,-0.079057,-0.56369,-1.2778,0.60957,0.68604,0.30366,-1.0736,-0.4105,1.1454,1.0689,0.22692,-0.92079,-1.0227,-0.38498,0.3802,-0.30855,-0.25751,-0.078935,0.22712,1.0433,0.81372,-1.1249,-0.5637,1.1453,0.12501,0.074111,0.81391,-0.46148,-1.4818,-1.1248,0.022876,0.022919,-0.15549,-0.053415,-0.28298,0.50776,0.43121,0.30365,0.73723,0.17604,0.27797,0.15042,0.20156,0.53317,-0.4616,-0.81851,-0.5635,-0.89511,-1.1757,-0.053525,1.2984,1.4004,0.099479,0.099521,-0.10453,-0.76767,-1.0738,-0.53817,-0.15549,1.1708,0.73723,0.15066,0.94143,0.40577,-0.43604,-0.30863,-0.7167,-1.5074,-0.7933,1.4004,2.5738,0.099668,-1.0228,-0.35973,-0.92069,0.15059,0.2016,0.074081,-0.71653,0.58402,0.63509,0.048567,-0.56353,-0.20647,0.86471,0.94134,-0.35945,-0.436,-0.58912,-0.51271,-0.2322,0.86477,0.48222,-1.4819,-1.3544,0.50779,2.2678,0.83937,0.048585,-1.4564,-1.686,-0.2066,1.8851,1.3749,-0.61463,-1.6095,0.38024,1.324,0.50773,-0.46157,-0.97173,-0.74221,-0.41063,0.35457,0.94114,-0.38503,-0.078935,0.91575,-0.10414,1.4769,0.71164,-0.81866,-1.9664,-0.30869,-0.002595,0.048549,-0.18103,-0.56354,0.48227,0.71177,-0.13002,-0.23209,-0.86973,-0.48714,0.4056,1.2729,1.6046,-0.02792,-0.71666,-0.35965,-0.92065,-0.84419,-0.30865,0.22705,0.71173,-0.02792,-0.20646,0.63519,0.73718,0.074124,-0.2065,0.099454,-0.23204,-0.43606,0.25265,-0.00243,-0.66562,-0.002467,0.60959,0.099577,-0.41049,-0.46157,-0.20655,-0.18111,0.07402,0.81375,0.45664,0.048616,0.45673,-0.28298,-0.64014,-1.2777,-0.15572,0.99215,0.27815,1.1453,0.3547,-0.3085,-0.69111,-0.81864,-0.51263,0.073977,-0.25759,-0.25751,0.7885,1.4259,1.2472,-0.20656,-1.3287,0.15049,-0.30851,-1.5581,-0.35962,0.58397,0.22707,0.83932,0.83928,0.55877,-0.58903,-1.8388,-0.25756,0.50758,-0.74209,1.0431,1.2728,-0.028054,-0.4871,-0.92058,-0.94601,1.0176,0.32906,0.023163,0.73726,-0.41039,0.32906,-0.28322,-1.0993,-0.74214,-0.18101,-0.10443,0.099521,0.22705,-0.002528,0.48219,1.2985,2.4207,0.40561,-1.6093,-1.0737,-1.4308,-1.2013,0.63522,0.55858,0.099387,-0.28295,1.1963,-0.84401,0.20153,1.1198,-0.15543,-0.79309,-0.28306,0.30352,0.023041,-0.25752
