-0.23201,-0.12999,-0.18103,-0.002479,0.074038,0.15054,0.15057,0.20159,0.074062,-0.15549,-0.23199,-0.15549,-0.13001,-0.027987,0.099564,0.17606,0.09954,0.12509,0.048573,-0.027969,-0.25752,-0.18099,0.023035,0.048518,0.074044,0.15057,0.17606,0.17606,-0.002448,-0.078947,-0.23201,-0.13,0.023047,-0.13001,-0.079002,0.12504,0.17607,0.099577,0.12509,0.023041,-0.25752,-0.2065,-0.10449,0.048531,0.15056,-0.002472,0.074057,0.17608,0.17607,-0.053464,-0.28301,-0.2575,-0.002467,0.12504,-0.002479,0.09954,0.074062,0.20159,0.048549,-0.053458,-0.30851,-0.23201,-0.13001,0.07402,0.074033,-0.027974,0.12507,0.12507,0.048536,-0.10449,-0.3085,-0.10447,-0.13002,0.099521,0.048543,0.20157,0.12504,0.048549,0.023084,-0.053464,-0.23199,-0.33404,-0.28303,0.12504,0.15053,0.25259,0.2781,0.25259,0.15059,-0.078959,-0.283,-0.12999,-0.15553,0.023023,0.22707,0.27808,0.12505,-0.002454,-0.02795,-0.05347,-0.181,-0.15549,-0.10447,0.12505,0.12505,0.099546,0.023047,0.074062,-0.002467,-0.05347,-0.15548,-0.2065,-0.13001,-0.027993,0.099559,0.15056,0.17605,0.09957,0.074087,-0.05347,-0.15549,-0.28302,-0.181,0.099521,0.12503,0.15056,0.023047,0.099577,0.20159,-0.002461,-0.25751,-0.15548,-0.079002,-0.00251,0.074038,0.15057,0.17607,0.15057,0.048567,-0.078959,-0.25751,-0.23202,-0.181,-0.053488,0.17606,0.30358,0.17607,-0.027956,0.023059,-0.10447,-0.18101,-0.2065,-0.1555,0.12505,0.12504,0.074038,0.023041,0.15058,0.099564,0.048561,-0.2575,-0.12999,-0.10449,0.074038,0.074038,0.099552,0.12509,0.15059,0.048549,-0.10449,-0.25751,-0.10447,-0.053488,-0.0535,-0.027969,0.25259,0.20157,0.099552,-0.027962,-0.12998,-0.078972,-0.1045,-0.079002,-0.079008,-0.078977,0.22708,0.074051,0.17609,-0.02795,-0.002454,-0.15551,-0.23202,-0.12999,0.12505,0.099528,0.15057,0.09957,0.15059,0.20159,-0.05347,-0.18098,-0.15549,-0.10451,-0.002485,0.023047,0.17607,0.17606,0.048555,-0.10448,-0.15549,-0.20649,-0.053464,0.048531,0.048531,0.099559,0.023041,-0.027969,0.048573,0.15059,-0.053476,-0.10449,-0.28303,-0.1555,-0.053482,0.12506,0.27808,0.12506,0.15057,-0.002454,-0.002423,-0.078977,-0.13,-0.1045,-0.078996,-0.002472,0.20157,0.25259,0.20157,0.09957,-0.2065,-0.283,-0.232,-0.20652,0.099534,0.27809,0.27808,0.20156,0.099559,-0.053451,-0.12998,-0.20649,-0.12998,-0.078996,-0.18104,-0.053476,0.074051,0.20158,0.2526,0.15057,-0.053464,-0.25751,-0.41054,-0.2065,0.048525,0.17606,0.30358,0.17607,0.074062,-0.12996,-0.12998,-0.2065,-0.23201,0.048531,0.22706,0.099546,0.074044,0.074038,0.074069,0.15059,0.099559,-0.2065,-0.20651,-0.20651,-0.002467,0.048536,0.048525,0.023041,0.17609,0.099552,-0.078966,-0.2065,-0.23202,-0.1045,0.07402,0.12504,0.15058,0.09954,0.15057,-0.027938,-0.078972,-0.18099,-0.25749,-0.18101,0.099515,0.099559,0.15056,0.12504,0.15057,-0.00243,0.048555,-0.15549,-0.25753,-0.15551,-0.027987,0.17607,0.22707,0.12505,0.023047,-0.053451,0.12508,-0.002454,-0.20649,-0.23202,-0.079008,-0.053482,0.099552,0.22707,0.20159,0.15058,-0.05347,-0.23201,-0.30852,-0.28303,-0.079002,0.09954,0.27808,0.17607,0.22708,0.15059,-0.181,-0.30852,-0.18099,-0.078984,0.15053,-0.02798,0.25257,0.099552,0.074081,0.12509,-0.002467,-0.078984,0.099528,-0.35953,-0.33402,-0.078972,0.074051,0.20155,0.32908,-0.002443,-0.18098,-0.23201,0.074033,0.22705,-0.05347,-0.10448,-0.002454,0.17606,0.099564,0.023059,-0.10447,-0.078972,-0.002461,-0.027998,-0.18105,-0.10452,0.12504,0.35461,0.0741,0.20159,-0.10446,-0.30851,-0.13,-0.1045,-0.20653,-0.027969,0.22706,0.55861,0.15057,-0.18095,-0.23198,-0.33402,-0.12999,-0.027987,0.099515,-0.078984,0.15059,0.30358,0.27808,-0.02792,-0.12997,-0.25751,-0.41054,-0.1555,0.12504,0.12505,0.25257,0.35461,0.22705,0.12508,-0.10445,-0.1555,-0.35953,-0.078977,-0.12999,0.023035,0.074051,0.20156,0.2526,0.1506,0.048549,-0.13,-0.25751,-0.23201,-0.027987,-0.002491,0.15054,0.12504,0.099583,0.12509,0.048543,-0.078984,-0.07899,-0.35953,-0.078984,0.12505,0.32908,0.25259,0.12507,-0.10446,-0.10448,-0.078959,-0.053464,-0.078984,-0.053488,0.023029,0.074038,0.048531,0.12507,0.023041,-0.002467,-0.12999,-0.181,-0.027969,-0.002467,0.074044,0.023047,0.099564,0.17609,0.15057,-0.15549,-0.28301,-0.12999,-0.027993,0.17606,0.099546,0.15054,0.074044,0.17611,0.074075,-0.078984,-0.41055,-0.23201,-0.13002,0.074008,0.099559,0.35459,0.099559,0.074075,0.023072,-0.20649,-0.20649,-0.2575,-0.053482,0.15054,0.20155,0.15057,0.099559,0.048555,-0.002454,-0.181,-0.30852,-0.20648,-0.12998,-0.13002,-0.00251,0.27809,0.15057,0.072198,0.072198,0.1742,-0.002448,-0.002448,0.023035,0.048543,0.023017,-0.079021,-0.0535,-0.05347,-0.027931,-0.027938,-0.078966,0.023041,0.12504,-0.002467,-0.027974,-0.078996,0.048525,-0.05347,-0.027956,0.023072,0.023059,0.15057,0.023059,0.15057,0.074026,-0.15553,-0.20653,-0.002467,0.048549,0.023065,-0.02792,-0.002443,0.048549,0.25254,0.15056,-0.18103,-0.18103,0.048543,0.074081,-0.078959,0.1506,0.048561,0.048518,-0.002491,-0.12999,-0.1045,-0.027993,0.17607,0.12508,-0.002448,-0.002448,0.023047,-0.053476,0.048518,-0.079008,-0.002497,0.048518,-0.002454,-0.002412,-0.078953,-0.20649,0.099577,0.17607,0.048518,-0.053506,-0.002485,0.074013,0.048549,0.023059,-0.027944,-0.12997,-0.15547,0.074051,0.12504,-0.027993,0.02301,0.074026,-0.053476,-0.053446,-0.10447,0.074075,0.04858,0.023041,0.048525,0.022998,-0.053513,-0.078996,-0.053464,-0.078947,-0.078959,0.15059,-0.002448,0.023059,-0.053488,-0.10449,-0.002497,0.048494,0.09954,0.074062,-0.027938,0.04858,-0.02792,0.048549,-0.002472,-0.079002,0.12502,0.048525,-0.07899,-0.30853,0.023072,0.099608,0.1251,0.15057,0.023017,0.022998,-0.053519,-0.053488,-0.053476,0.074044,-0.002454,0.099595,-0.027944,-0.12999,0.17607,-0.053482,0.023017,-0.002485,-0.002485,0.023059,-0.002454,0.074093,0.074075,0.074062,-0.027987,-0.027993,-0.13002,-0.15551,0.074057,0.074081,0.023065,0.099595,0.023084,-0.002461,0.048536,-0.028018,-0.053506,-0.002485,0.023059,-0.002448,-0.078972,0.023047,0.099583,0.099583,0.074033,-0.15551,-0.078996,0.074026,-0.053482,-0.002472,0.023047,0.023072,0.04858,0.048567,0.074038,-0.13001,-0.053506,-0.13001,-0.20654,-0.053482,0.15059,0.2271,0.12508,0.048561,-0.12999,-0.02798,-0.10451,0.023005,-0.078984,-0.002461,0.074075,0.048592,-0.027938,-0.027974,0.27806,0.099528,-0.1045,-0.1045,-0.13,0.048555,-0.10445,-0.053458,-0.027931,-0.027962,0.12503,0.074038,-0.079002,0.048512,0.099552,0.074062,-0.002472,-0.027944,-0.027925,0.099564,-0.002472,0.023005,0.023005,0.074038,0.048555,0.048561,-0.053451,-0.20651,0.048543,0.048555,0.099546,0.099534,-0.002472,0.12502,-0.13,-0.05347,-0.002443,-0.027944,0.099588,-0.02795,0.099552,-0.002472,-0.002491,0.022998,0.023023,-0.053458,-0.053451,-0.078959,0.074075,0.04858,0.048531,0.023029,-0.00251,-0.002491,0.023047,-0.053464,-0.002454,-0.027944,0.099577,-0.05347,0.15057,0.023029,-0.028005,0.048525,0.074038,-0.002461,-0.12998,-0.078972,0.074075,0.099583,-0.002454,-0.053482,-0.002485,-0.002485,-0.078972,-0.002479,-0.02798,-0.027956,-0.02795,-0.027969,0.22707,0.09954,-0.15551,-0.027987,-0.027969,-0.027969,-0.05347,-0.078966,0.048561,-0.10448,-0.002485,-0.002467,-0.002467,0.048518,-0.078984,-0.078972,0.023059,0.04858,0.20159,-0.002448,0.023029,-0.079002,-0.079021,-0.00251,-0.002479,0.04858,0.048592,-0.078959,-0.13001,-0.002461,0.048549,0.09954,-0.028005,0.048512,-0.05347,-0.078966,-0.053464,-0.002454,0.023084,0.09957,0.023023,-0.15552,-0.002516,-0.027993,-0.05347,-0.078977,0.023041,0.074093,-0.12995,-0.12996,-0.0535,0.12503,0.09954,-0.053488,-0.02798,0.048531,-0.053464,-0.10445,-0.053446,0.12508,0.12505,-0.23203,-0.15553,0.099534,0.048536,-0.002436,-0.053446,-0.10447,0.023059,0.023047,0.048536,0.023017,0.02301,-0.002497,0.023035,-0.053476,-0.15548,-0.078947,0.023096,-0.053464,0.048518,-0.079033,0.074013,0.074026,0.048536,0.048567,-0.12996,-0.12996,0.023072,0.074062,-0.002472,0.048506,-0.079033,-0.027993,0.099564,0.048536,-0.002436,0.1251,-0.027956,-0.002454,0.048536,-0.10452,0.074013,0.048531,0.048543,-0.053446,-0.078972,-0.027944,0.074081,-0.027974,0.048525,-0.07899,-0.027993,0.099534,-0.20654,0.023035,0.099583,-0.053427,0.2016,0.15058,0.02301,-0.079008,0.023029,-0.078984,-0.053488,-0.027969,-0.027956,0.12509,-0.027938,-0.002472,0.074026,0.048531,0.074013,-0.028018,-0.027969,-0.053451,-0.10445,-0.002443,0.15059,0.023035,0.12505,-0.053495,0.023017,-0.053488,-0.002485,-0.027956,-0.027938,-0.002436,0.048567,-0.002472,0.023005,0.12504,-0.002485,-0.15553,-0.078972,-0.027944,-0.002436,0.099583,0.099583,0.023035,0.099515,-0.027993,-0.002503,-0.15551,-0.12997,-0.027938,-0.053446,-0.12996,-0.078966,0.12506,0.15054,0.048512,0.09954,-0.13,-0.027969,0.099552,-0.12998,0.074081,0.17609,0.023047,-0.027993,-0.053495,0.023035,-0.1555,-0.078996,0.099564,0.15058,-0.053446,0.048561,0.074062,-0.002485,0.099528,0.12504,-0.10452,-0.28305,0.074069,0.1506,-0.002423,-0.12996,0.023035,0.17605,-0.02798,-0.10452,-0.053495,-0.05347,-0.078977,0.048549,-0.027944,-0.027938,0.048561,-0.079002,-0.079008,0.074033,0.02301,-0.0535,0.048543,0.074075,-0.02792,-0.078941,-0.002467,0.099534,-0.027987,-0.002485,-0.028011,-0.07899,-0.053451,0.074075,0.074069,-0.10446,-0.002461,-0.053482,-0.078996,-0.00251,0.023023,0.023065,0.20158,0.023059,-0.12996,0.074057,0.048567,0.22707,-0.027987,-0.053513,0.023023,0.15057,-0.12998,-0.12998,-0.027956,0.048561,0.048555,-0.07899,-0.053513,-0.002479,-0.181,-0.002485,0.27809,0.074075,-0.23199,-0.053458,0.09957,0.048555,-0.002485,0.048512,0.12504,-0.078977,-0.078972,0.023054,0.074087,0.048573,0.023029,-0.10452,-0.02798,0.15054,0.023017,0.023029,0.023035,-0.053446,0.074106,-0.10445,-0.15551,0.023029,-0.002485,0.099515,0.099528,0.048555,-0.10449,0.048555,0.048585,-0.027925,0.099564,0.048531,0.074033,0.048512,-0.027987,0.023041,-0.078953,-0.078972,-0.053451,0.023059,0.074062,0.09954,-0.079014,-0.10452,-0.1045,-0.002443,-0.10446,-0.078972,0.074081,0.099601,0.048531,-0.002497,-0.002491,0.099515,0.02301,-0.078984,0.048561,-0.002448,-0.053451,0.09957,-0.027944,0.023054,-0.027993,-0.053513,0.12504,-0.053488,-0.23201,0.099588,0.25261,0.12507,0.048555,-0.027969,-0.10451,-0.0535,0.048525,0.099559,-0.02795,-0.078977,0.048549,0.12507,0.09957,0.074044,-0.15551,-0.15552,0.07402,0.023041,-0.12998,0.09957,-0.053446,0.12509,0.048561,-0.1045,-0.10452,0.074013,-0.002491,0.023035,-0.12998,-0.053464,-0.002436,0.099588,-0.002443,0.023005,-0.13005,0.023029,0.023023,0.099552,0.099583,-0.002436,-0.053458,-0.002436,-0.078966,-0.002491,0.048518,-0.07899,-0.079002,0.023029,-0.002443,-0.002461,-0.002454,0.048573,-0.002443,0.12504,-0.10453,-0.053506,-0.053488,-0.002454,0.074051,0.074062,-0.027956,0.15059,0.023047,-0.13002,-0.053476,0.099552,0.02301,-0.053482,0.023041,0.023041,-0.078947,0.023078,0.048561,0.048543,-0.002503,-0.18106,-0.053513,0.074051,0.074081,0.048573,-0.053433,0.048573,0.023035,0.12503,0.048525,-0.13001,-0.0535,-0.027987,0.023047,-0.18098,-0.027944,0.048567,0.023054,0.048561,-0.07899,0.02301,-0.002479,-0.027969,0.048525,-0.053476,-0.053451,0.023078,-0.027956,-0.027969,-0.15552,-0.028011,0.048512,0.023023,0.023059,0.023072,0.023072,0.09957,-0.079002,0.099546,-0.05347,-0.1045,-0.002485,-0.13,0.023041,0.048561,-0.002423,-0.002423,-0.027969,-0.079026,-0.002485,-0.002472,0.023029,-0.053482,0.099546,0.048555,0.074093,-0.12994,-0.10449,0.099521,0.023029,-0.002479,-0.13,-0.10448,-0.027974,-0.053464,0.12507,0.099577,0.099564,-0.027969,-0.15551,-0.1045,-0.028005,-0.002485,0.048549,0.09957,0.04858,0.023059,0.12507,0.074033,-0.18102,-0.002485,-0.027987,0.023023,-0.027962,0.074069,-0.053439,-0.002443,0.048543,0.12504,0.048531,-0.20653,0.048518,0.048531,0.074062,-0.002443,-0.002418,-0.002418,-0.002461,0.048506,-0.027993,-0.002497,-0.027974,-0.078984,-0.053488,0.023041,0.074087,-0.002412,-0.002443,-0.027987,-0.028011,-0.02798,0.074038,0.12505,0.023047,0.023041,-0.053446,-0.002412,-0.053464,0.048525,-0.07899,-0.027998,-0.10451,0.048543,0.023065,-0.10446,-0.053458,-0.002443,-0.053464,0.023041,0.023017,-0.00251,0.099521,0.048561,-0.002454,-0.027938,-0.02795,0.023054,-0.002448,-0.027969,-0.10449,-0.0535,0.022998,0.099534,0.12508,-0.053439,0.023059,0.099588,0.048567,0.12504,0.099534,-0.053513,-0.027993,-0.05347,0.023059,-0.002461,0.074062,0.023084,-0.002467,0.023005,-0.13001,-0.027969,-0.002479,-0.002479,-0.002454,-0.002436,0.074081,0.074069,0.023035,-0.027993,-0.002472,-0.078984,-0.002497,0.12504,0.023065,-0.12998,-0.078947,-0.078959,0.15055,0.099534,-0.07899,-0.10449,-0.02798,-0.027993,0.023035,0.074075,0.2016,0.09957,0.074051,0.09954,-0.02798,-0.20653,0.048518,-0.053476,0.048561,-0.053451,-0.078966,-0.027956,0.099559,0.12504,-0.053495,-0.13002,-0.079008,-0.053482,-0.053451,-0.00243,-0.053446,0.048561,0.12507,-0.027987,-0.027987,-0.053513,0.023023,0.023047,-0.002454,-0.002461,-0.002443,0.023078,-0.10446,0.02301,0.074013,0.07402,-0.027987,-0.12999,-0.002461,0.12509,-0.053446,-0.027944,-0.10449,-0.002479,0.074038,-0.053495,-0.027998,-0.002491,-0.002454,-0.078959,-0.15548,-0.027938,-0.12996,0.048512,0.022998,0.17605,0.023023,-0.078977,-0.027969,-0.027956,0.074087,-0.10444,0.048555,0.023005,-0.10449,-0.027998,0.022992,-0.07899,0.048561,-0.053451,0.023041,-0.002436,0.023041,0.07402,-0.15551,0.023029,-0.079002,-0.053482,-0.078977,-0.002461,0.17609,0.099588,-0.181,-0.13001,0.12504,-0.002491,0.02301,0.023047,-0.078972,0.023035,0.15059,-0.027931,-0.12998,-0.002479,-0.053488,-0.002503,0.12503,0.048543,-0.002448,0.048555,-0.02792,-0.078941,0.048549,0.048531,-0.053506,0.02301,-0.027969,-0.053482,-0.027962,0.048573,0.048567,-0.027962,-0.002443,-0.027974,-0.027998,-0.027993,-0.10452,-0.053464,-0.053439,0.023047,-0.053446,-0.027944,-0.02798,0.048536,-0.002479,0.022992,0.074038,0.023023,-0.027969,-0.002443,-0.027944,-0.002443,-0.002461,-0.002448,-0.078996,-0.10452,0.048518,0.023047,0.12505,0.023047,0.099595,0.023059,-0.078984,-0.078984,-0.10449,-0.002467,0.048518,0.099515,0.074033,0.023059,0.023072,-0.078953,-0.027969,0.048543,-0.12999,-0.10452,0.12502,0.15055,-0.078977,0.023047,0.023084,0.04858,0.048561,0.048543,-0.078996,-0.13002,0.074013,-0.027956,-0.078977,0.074057,0.074075,-0.027956,0.048561,0.048555,-0.20652,-0.028005,0.074038,-0.078984,0.074044,0.048561,-0.027938,-0.053458,0.023059,-0.078977,-0.10451,0.07402,0.023035,-0.027962,0.023023,-0.053458,0.023084,0.074069,-0.053476,0.048549,-0.20652,-0.079014,0.048525,-0.10448,-0.12998,0.048561,0.099583,-0.078947,0.09954,0.048536,-0.078977,0.099534,0.099534,-0.12998,-0.07899,-0.12998,-0.027938,0.023059,0.099559,0.074013,-0.0535,-0.053476,-0.002491,-0.02798,0.023023,0.048561,0.02309,-0.002436,-0.002467,0.023035,-0.002467,-0.027993,0.048518,-0.002491,0.023059,0.09957,-0.002436,-0.027969,-0.027956,-0.002461,-0.027993,-0.002491,-0.13003,-0.1045,-0.002443,0.048567,0.048549,-0.053451,0.099564,-0.002461,-0.027987,-0.027998,-0.053495,-0.05347,-0.05347,-0.002461,0.048555,0.048567,-0.027974,0.023023,-0.10449,-0.10449,-0.027998,0.12504,0.099559,0.048561,0.074062,0.074087,-0.002461,0.099534,0.099546,-0.053488,-0.13002,-0.078984,-0.12997,-0.002472,0.023059,-0.002418,-0.05347,0.023041,-0.002491,0.02301,-0.02798,-0.002485,-0.053476,-0.027938,0.048567,-0.078928,0.023072,0.0485,0.023017,0.023029,-0.053513,0.023047,0.048549,0.023041,0.023072,-0.078959,-0.002454,-0.10449,-0.18103,0.074044,-0.07899,0.048525,0.099559,-0.027969,0.048567,0.099595,0.074051,-0.002472,-0.1045,-0.10452,-0.002472,0.023035,0.023035,0.023047,-0.12998,-0.053439,0.099595,0.15054,-0.002485,-0.002491,-0.053506,0.023035,-0.15547,-0.18098,0.15059,-0.20647,-0.027969,0.048531,-0.027987,0.07402,0.074033,-0.053476,-0.05347,0.023047,0.074075,-0.053451,0.099546,0.20156,-0.15552,-0.028005,0.023023,-0.002472,-0.12997,-0.05347,0.048561,0.048573,-0.027956,-0.002454,0.023023,0.074013,-0.027993,0.023041,-0.10448,-0.027969,-0.002436,-0.053433,0.023035,-0.027987,0.099534,-0.002503,-0.0535,-0.10447,-0.002472,0.12507,0.04858,0.048567,-0.053464,0.023047,-0.07899,-0.028005,0.048512,-0.10449,0.048536,0.048567,0.023047,0.099595,-0.078959,-0.002491,-0.002497,-0.053495,-0.002497,-0.027969,0.12507,-0.027969,-0.002443,0.023078,0.023047,-0.02798,-0.002467,0.023017,-0.002503,-0.002461,-0.053458,-0.05347,-0.002448,0.023084,-0.053458,0.048518,0.02301,0.023017,-0.053513,0.023029,0.074069,-0.12998,-0.053439,0.099588,0.048555,0.15054,0.15054,-0.1045,-0.053513,-0.02798,0.023072,0.023047,-0.002461,-0.027925,0.023059,-0.1045,0.048518,0.048518,0.17603,0.023041,-0.10447,0.023059,0.12509,-0.027938,-0.027969,0.048543,-0.078996,0.022998,-0.13,-0.23198,-0.002472,0.048543,0.023065,-0.053439,0.048536,-0.10446,0.12502,0.099503,-0.078984,-0.2065,-0.078959,-0.10445,0.048543,0.099588,0.023059,0.20155,0.023023,-0.13001,-0.027993,-0.027956,0.048543,0.023054,-0.053427,0.023065,0.099552,-0.10449,-0.079014,0.12504,0.023023,-0.053495,0.048567,0.023054,0.074044,0.023084,-0.23198,0.02301,-0.002479,-0.053488,-0.079014,0.023047,-0.002448,-0.002461,0.074081,0.023059,0.023029,-0.027993,-0.079002,-0.028011,-0.02798,-0.10449,0.09957,0.12505,0.099577,0.023078,0.023065,-0.002472,-0.079008,0.048536,-0.1045,-0.12999,-0.027974,0.023047,-0.02792,-0.053451,0.023047,-0.002467,0.023005,0.048536,-0.053506,0.074026,-0.027962,-0.002467,0.023072,-0.027931,0.048555,0.099546,-0.10449,-0.027987,0.048531,-0.027974,0.048531,0.074062,-0.053439,-0.18096,-0.053446,0.17604,-0.053525,-0.078996,-0.15549,-0.079002,0.048561,-0.078959,0.048561,-0.02792,0.074038,-0.053488,-0.027987,0.048518,0.09954,0.099534,-0.02795,-0.1045,-0.027925,0.099601,0.074044,-0.002479,-0.078996,-0.053519,-0.053495,-0.027962,-0.053488,-0.053458,0.02309,0.04858,0.023047,-0.078977,-0.028005,0.07402,0.074038,-0.002479,-0.02798,0.074069,-0.027962,0.048573,-0.053451,-0.10449,-0.027987,-0.002479,0.022998,0.15054,-0.027944,-0.12995,-0.027956,0.09957,0.048567,0.023029,-0.053513,-0.07899,-0.002461,0.048536,0.048518,-0.027969,-0.12995,0.04858,-0.027962,0.074044,-0.07899,-0.15554,-0.002479,0.074051,0.023054,0.023041,0.074081,-0.12995,-0.10449,0.15054,0.074044,-0.002479,-0.0535,-0.053476,-0.027956,0.099559,-0.027969,0.023072,-0.027956,0.074038,-0.13,-0.002467,0.022998,0.09954,0.023029,0.023047,0.048592,-0.10446,-0.002454,-0.05347,0.099521,0.048531,-0.15551,0.074026,0.09957,-0.027969,0.074062,0.023059,-0.25749,0.023035,-0.002479,-0.053506,0.074026,-0.002454,0.023029,0.15056,-0.18095,-0.12997,-0.027944,0.074044,0.099534,0.074026,-0.002497,-0.027998,-0.053464,-0.02795,0.023047,-0.027931,0.023084,0.15054,-0.028005,-0.002485,-0.002485,-0.07899,0.074038,0.048567,0.048585,-0.10445,-0.027969,-0.002472,-0.053476,-0.053519,0.12503,0.048543,0.023059,-0.002448,0.023059,-0.002461,-0.1045,-0.002472,-0.027969,0.023035,0.02301,0.048531,0.17607,-0.002448,-0.027962,0.099577,0.023059,-0.10449,-0.002497,0.022998,0.074026,-0.20649,-0.15549,0.09957,0.12507,0.17609,0.048549,0.074038,-0.1045,0.023029,-0.10451,-0.053488,-0.002443,0.048561,0.023054,0.099595,-0.078959,-0.02798,-0.002485,0.023029,-0.053506,-0.027969,0.048555,-0.078953,-0.027962,0.099595,-0.078947,-0.002485,-0.1045,0.023023,0.022992,0.12505,-0.027962,0.048543,0.048573,-0.15546,-0.027969,-0.002467,0.023047,-0.053482,-0.079008,-0.002485,0.023035,0.15057,0.15059,0.023072,-0.02795,-0.12998,-0.027998,0.048494,0.023029,-0.07899,-0.002461,0.048567,0.023065,0.25259,-0.027944,-0.053476,0.02301,0.023023,0.099528,-0.15551,-0.002461,-0.00243,-0.02795,0.099552,0.048549,-0.027969,-0.079008,-0.053482,0.048531,-0.002472,0.048531,0.048555,0.023078,-0.027956,-0.027931,-0.1045,0.074013,0.074038,0.023005,0.074038,-0.078972,-0.078972,0.048549,-0.12996,-0.078972,-0.027969,-0.10449,-0.002503,-0.02798,0.048549,-0.002472,-0.002436,-0.002448,0.04858,0.12508,0.023017,-0.07899,-0.027993,-0.0535,0.023029,-0.002472,-0.078953,0.023054,0.17608,-0.002443,-0.078996,-0.027987,-0.23202,-0.1045,0.12505,-0.027969,-0.002443,0.099588,0.099559,0.074062,-0.02798,0.048518,-0.002479,0.02301,-0.053476,0.023059,-0.027969,-0.02795,-0.078941,-0.05347,-0.002472,-0.02798,-0.002491,-0.079021,0.023023,-0.078966,-0.027962,0.09957,-0.078935,-0.053464,0.09954,0.074033,-0.10451,-0.028011,-0.027974,-0.027944,0.023059,-0.027962,0.12509,-0.027956,-0.027993,-0.079008,-0.053482,0.074026,0.023017,-0.027956,-0.053446,0.023029,-0.027938,-0.10443,-0.053495,0.023017,-0.02798,-0.027993,0.02301,-0.10449,0.023054,0.04858,0.048567,-0.027956,0.048543,-0.1045,-0.10452,0.074026,-0.027956,-0.053446,0.12506,-0.027938,-0.10445,-0.078972,0.048536,0.09954,-0.053488,-0.053506,-0.027993,0.023072,0.074062,0.17607,0.048585,-0.10445,-0.13,-0.10453,-0.053495,0.048531,0.023023,-0.002479,-0.078959,-0.10444,-0.002423,0.048543,0.074026,0.048525,-0.002472,0.074026,-0.10449,0.023023,-0.002467,-0.002448,0.048561,-0.053439,-0.12998,-0.079014,-0.002491,0.048518,0.099546,-0.027956,-0.05347,-0.002461,0.12508,0.048573,-0.053464,0.048536,-0.028005,0.048506,-0.002479,-0.078972,-0.05347,0.09957,0.099601,-0.002454,-0.053495,-0.13,-0.027969,0.074033,0.099534,0.074038,0.074057,0.023065,-0.10445,-0.027969,0.074051,-0.027969,-0.10451,0.048506,0.048536,-0.078972,-0.002454,-0.027969,-0.027938,-0.027931,0.074038,-0.002503,-0.027998,0.023035,-0.002491,0.023035,0.023041,-0.053458,0.02309,0.023065,-0.002485,-0.027993,-0.05347,-0.002485,-0.027993,-0.002472,0.074051,-0.078947,0.023065,-0.002454,0.023023,0.023029,-0.1045,0.074026,0.022998,-0.053476,-0.002423,0.12508,-0.00243,0.023047,0.023035,-0.10449,-0.002479,0.023017,0.07402,-0.002467,0.048573,-0.053446,-0.078947,-0.027969,0.09954,-0.002485,0.048518,-0.053495,-0.1045,-0.078972,-0.002448,-0.027925,0.048567,0.099546,0.023041,-0.027969,0.023017,-0.002497,-0.002497,0.048549,-0.053458,-0.053421,-0.053439,-0.002467,0.023029,0.048531,-0.13002,0.074013,0.09954,0.12507,0.023054,0.048573,0.02309,-0.12996,-0.002485,0.074033,-0.079002,-0.079014,0.023041,0.074044,0.074044,-0.002443,-0.078928,0.074044,0.074044,-0.13001,-0.15551,-0.027974,-0.027987,0.09954,0.12509,-0.10445,-0.10446,0.12507,0.12504,0.099528,-0.027993,-0.079008,-0.027969,0.023054,-0.002448,0.023047,-0.053439,-0.027938,0.074038,0.048518,-0.078996,0.048518,-0.02798,0.048561,0.074051,0.074044,-0.002436,-0.10444,-0.027987,-0.053488,-0.002461,0.022998,-0.078996,-0.002443,0.048555,0.048549,-0.078947,-0.078972,-0.0535,-0.12999,0.023035,0.074013,-0.002461,0.023029,-0.002467,0.023072,-0.078959,-0.002443,0.023054,-0.027987,0.048506,-0.027993,0.048531,0.074026,0.099564,0.12507,-0.027931,-0.12997,-0.027969,-0.053476,-0.1045,-0.10452,-0.10451,0.048536,-0.002461,-0.027931,-0.002436,0.12507,0.07402,-0.002503,-0.027987,-0.078977,0.023035,0.023029,-0.078972,-0.053458,-0.078923,0.048555,0.048518,-0.1045,-0.027969,-0.053488,-0.027998,-0.078996,0.048573,0.023072,0.023072,0.048549,-0.002479,0.048531,-0.027993,-0.028005,-0.02798,-0.002461,-0.002436,-0.053446,0.048561,0.074057,0.023035,-0.1045,0.048531,0.074013,0.048512,-0.078953,-0.02795,0.023041,-0.027944,0.04858,0.074038,0.099503,-0.027993,-0.078977,0.048555,0.023023,-0.027969,-0.12996,-0.078928,-0.002448,0.20156,0.02301,0.099534,-0.079002,-0.15551,0.048536,0.074062,0.17608,0.048598,-0.053458,0.074038,-0.079014,-0.027987,-0.002479,-0.027969,-0.002454,0.074069,0.048549,-0.027956,-0.05347,0.048543,0.048531,-0.053495,-0.1045,-0.15551,0.048543,0.048555,0.099583,-0.053439,0.023059,0.074013,-0.1555,-0.10449,-0.027993,0.048512,0.12507,0.023041,-0.12998,0.074087,-0.00243,-0.078977,-0.079002,0.099528,0.023017,-0.027993,0.074038,0.074069,-0.002436,-0.053451,0.023054,-0.002454,0.023017,0.0485,0.023035,-0.002472,-0.1555,0.023047,-0.027925,0.099595,0.048555,0.023017,-0.002485,0.048531,0.023023,0.048512,0.023035,-0.027969,0.023065,-0.078935,-0.002443,0.023023,-0.053476,0.023035,0.07402,-0.18103,-0.027974,0.023065,0.023054,0.023047,0.023059,0.12507,0.048512,-0.079008,-0.10449,-0.002467,0.048555,-0.002448,-0.053464,0.099588,0.074069,0.023029,0.048506,-0.027987,-0.02798,-0.027998,-0.02798,-0.053458,-0.002443,-0.02792,0.023065,0.023029,0.02301,-0.078996,0.023023,-0.027987,-0.002479,0.023059,-0.00243,0.023072,-0.027969,-0.002467,0.09954,0.074026,-0.00251,-0.053482,-0.078947,-0.027956,-0.078972,0.023059,0.048567,-0.05347,-0.078984,-0.027998,0.074013,0.023023,0.099564,-0.02795,-0.05347,0.023059,0.023054,0.048555,-0.078996,-0.053482,0.022998,0.07402,0.023047,-0.10447,-0.053464,0.048567,0.048567,0.023047,-0.002479,-0.027987,0.074026,-0.232,-0.027974,0.12507,0.12507,-0.002418,0.09957,0.074026,-0.002485,-0.15549,-0.078984,-0.027998,0.023035,-0.02795,0.023059,-0.002443,-0.027944,-0.002467,-0.13002,0.048512,0.099534,-0.12999,-0.10449,-0.15549,-0.053451,-0.053427,0.074069,0.099528,0.048518,-0.027969,0.074033,-0.053482,-0.002479,0.023047,0.074075,0.023054,-0.10446,-0.053488,-0.1045,-0.07899,-0.027993,-0.002503,0.023041,0.15059,0.023041,0.074075,0.048567,-0.002479,-0.078984,-0.053495,-0.053495,0.048543,-0.002485,0.12506,0.048555,0.048573,-0.002423,-0.12999,-0.002485,-0.078977,-0.10452,0.02301,-0.002448,0.023059,0.15057,-0.10445,-0.002461,0.023035,0.17605,0.023017,-0.028018,0.023023,-0.027969,-0.18098,-0.027931,-0.027938,0.099552,0.048518,0.048525,-0.07899,-0.002467,-0.002479,-0.13,0.048543,0.074062,0.074087,-0.00243,0.023035,0.048512,-0.053488,-0.002491,0.048536,0.074038,-0.027969,-0.10446,-0.002418,-0.053446,-0.002479,0.048531,-0.078984,-0.027987,0.048525,0.12504,0.048555,-0.053439,-0.078947,-0.078966,0.074038,0.048531,-0.10449,-0.027993,0.023005,0.023035,0.023059,-0.078953,-0.18097,0.048561,0.048549,-0.07899,-0.053476,0.022998,0.074026,-0.078953,0.048567,0.023059,0.023047,-0.002454,-0.053464,-0.078984,-0.15551,-0.002497,0.048512,0.023047,0.074062,-0.027969,-0.00243,0.023084,-0.05347,-0.078996,-0.002503,0.048518,0.074033,-0.027962,-0.10447,0.023054,0.048567,0.099588,-0.10447,0.023017,-0.028011,-0.002497,0.099528,0.12507,-0.002448,-0.078966,-0.078947,0.074062,0.099559,-0.12999,-0.027993,-0.053506,-0.07899,-0.002448,-0.002461,0.074057,0.099559,0.048567,0.048555,0.074033,-0.10452,-0.079008,-0.1045,0.023059,0.12507,0.023054,-0.027956,0.023059,0.023054,-0.027969,-0.07899,-0.079021,-0.02798,0.023047,0.09957,0.15057,0.023065,0.023047,-0.002454,0.023029,-0.053488,-0.002503,-0.027998,-0.027962,0.048561,-0.10446,-0.10447,0.074069,0.12506,0.17605,-0.053482,-0.079021,-0.002472,-0.002472,-0.053464,-0.053458,0.023054,-0.027938,-0.10447,-0.002461,0.02301,-0.028018,-0.028005,-0.002467,0.074069,-0.078959,-0.053433,-0.078959,-0.10449,0.099521,0.048525,-0.053495,0.023029,0.048561,-0.053464,-0.002461,-0.002436,0.074062,0.074051,0.023023,-0.027993,0.02301,-0.002479,-0.053488,-0.027969,-0.078959,0.048592,-0.002443,0.023017,0.048518,-0.027993,0.074026,-0.027987,-0.027969,0.099552,-0.002454,0.023084,0.023065,-0.002454,-0.1045,0.023029,0.074038,0.023023,-0.10449,0.074062,0.074075,0.023065,0.048549,-0.078984,-0.02798,-0.027969,-0.053495,-0.12999,-0.02798,0.099559,0.074051,0.074087,-0.027944,-0.002479,-0.0535,-0.027987,-0.078984,-0.053488,-0.02798,-0.027956,-0.078953,-0.053446,0.023047,-0.05347,-0.07899,-0.002467,0.023005,0.02301,0.048536,0.074075,-0.02795,-0.053451,-0.002423,0.023047,-0.028011,-0.002485,-0.002479,0.048536,-0.002467,-0.078966,-0.053451,0.099588,-0.078977,-0.002461,0.023041,-0.002485,0.0485,0.048518,-0.002467,0.074075,0.12508,-0.053446,-0.027944,-0.053482,0.099521,0.07402,-0.078984,-0.027969,-0.078972,-0.053464,-0.002454,-0.027956,0.023072,0.074057,0.023035,0.07402,0.023005,-0.079002,-0.027974,0.048567,-0.053446,-0.053446,0.12508,0.023047,-0.002485,-0.053495,-0.002497,0.023029,-0.002461,0.023035,0.12507,0.023084,-0.12996,0.048543,0.074044,0.023017,-0.028018,-0.027974,-0.05347,-0.002454,-0.02798,0.023059,0.099595,-0.002461,-0.079014,-0.02798,0.048543,0.09954,0.048543,-0.078972,0.074062,0.048592,-0.027944,-0.027987,0.048525,-0.002491,-0.13,0.023023,0.074033,-0.027969,0.023059,0.099595,0.09957,-0.002461,0.023023,0.048536,0.099546,-0.027993,-0.002472,-0.078959,-0.027969,-0.053446,0.074075,0.048555,0.099534,0.048525,-0.10453,0.02301,0.099564,0.023065,0.023054,0.099577,-0.002436,-0.02795,-0.07899,-0.002503,-0.002491,-0.053482,-0.02798,-0.002472
-0.10451,-0.15549,-0.1555,-0.078977,-0.15547,-0.12998,0.099559,0.38011,0.25258,0.099534,-0.20652,-0.23202,-0.2065,0.023054,-0.12997,-0.10446,0.099552,0.27808,0.20158,-0.027974,-0.15549,-0.18098,-0.18101,-0.15553,-0.027969,-0.078953,0.12509,0.22708,0.074044,-0.053482,-0.10451,-0.002479,-0.053476,-0.23199,-0.10447,0.048555,-0.002485,0.27809,0.25259,0.074026,-0.053506,-0.15548,-0.078972,-0.10449,-0.2065,-0.10446,0.22709,0.3546,0.12505,-0.1555,-0.02798,0.023029,-0.078972,-0.15548,-0.20649,-0.002454,0.20158,0.30358,0.099546,0.12505,-0.15549,-0.25753,-0.078996,-0.10447,0.048567,0.048549,0.17608,0.17608,0.17607,0.099528,-0.1045,-0.2065,-0.12998,-0.10447,-0.078959,-0.027944,0.15057,0.27808,0.17604,0.25254,-0.181,-0.232,-0.181,-0.2065,-0.10447,0.099559,0.17608,0.20159,0.17609,0.048531,-0.079008,-0.0535,-0.078984,-0.23199,-0.15546,-0.15546,0.074044,0.3291,0.3546,0.17604,-0.18103,-0.07899,-0.181,-0.002467,-0.18099,-0.15547,0.023054,0.40564,0.22708,-0.053506,-0.053495,-0.027969,-0.078972,-0.027969,-0.12998,0.048561,0.15058,0.3036,0.15055,0.023035,-0.053495,-0.078984,-0.027969,-0.12999,-0.2065,0.023054,0.17607,0.25258,0.25259,0.074062,-0.12999,-0.079002,-0.13001,-0.027969,-0.053451,-0.053458,0.099564,0.12506,0.25257,0.15054,-0.0535,-0.18101,-0.232,-0.10447,-0.078966,0.023041,0.17607,0.17609,0.12505,0.099534,-0.053495,-0.181,-0.027969,-0.002461,-0.078959,-0.12996,0.023059,0.25259,0.20158,-0.02798,-0.18101,-0.28303,-0.053495,0.023059,-0.10446,-0.10447,0.20156,0.32911,0.12505,-0.078996,-0.1555,-0.2065,0.048525,-0.05347,-0.2065,-0.027931,0.20158,0.15056,0.35456,0.07402,0.07402,0.09954,-0.30849,-0.35953,-0.20647,-0.30849,0.074069,0.35461,0.17607,0.099528,0.15054,-0.2065,-0.079002,-0.23201,-0.12998,-0.002443,0.38011,0.3036,0.048525,-0.2065,-0.15549,-0.1045,-0.027974,-0.10447,-0.053464,-0.002461,0.17607,0.17609,0.074051,-0.079002,0.12505,0.048536,-0.15549,-0.15549,-0.20648,-0.053464,0.25259,0.20159,-0.20649,-0.053488,0.20153,-0.002485,-0.23202,-0.232,-0.15548,0.074075,-0.002461,-0.027969,0.074051,0.12504,0.15054,-0.053488,-0.10449,-0.2065,-0.053458,0.15057,0.22709,0.25259,0.048549,-0.1045,-0.1045,-0.053495,-0.181,-0.05347,-0.12996,-0.10445,0.074057,0.099552,0.30358,0.12504,-0.18102,-0.23201,-0.18097,0.023047,-0.078972,0.12508,0.023054,0.20157,0.27808,-0.02798,-0.181,-0.1045,-0.18098,-0.20652,-0.15549,-0.027956,0.17604,0.22708,0.27811,0.12505,-0.13001,-0.1555,-0.28299,-0.15549,-0.078984,-0.053458,0.12506,0.25258,0.20157,0.15056,-0.13,-0.18102,-0.20652,-0.053482,-0.027938,-0.12995,0.023054,0.15057,0.15055,0.074026,-0.002491,-0.079008,-0.12998,-0.18097,-0.12996,-0.10447,-0.002454,0.3801,0.074062,0.099552,-0.02798,-0.13,-0.1045,-0.28302,-0.18098,-0.002461,0.15057,0.099564,0.17606,0.30357,-0.002485,-0.053506,-0.20651,-0.10447,-0.078959,-0.15548,0.12507,0.40562,0.20155,-0.027993,-0.30852,-0.12999,-0.20651,-0.15548,-0.12995,0.048549,0.35458,0.15057,0.25257,0.15054,-0.18101,-0.15548,-0.181,-0.10449,-0.12998,-0.078959,0.17606,0.27808,0.12505,0.023047,-0.078984,-0.15552,-0.18101,-0.078972,-0.078953,-0.053464,0.074062,0.3291,0.32909,0.099546,-0.12998,-0.12999,-0.027993,-0.25753,-0.20647,-0.10445,0.15057,0.20156,0.17606,0.074044,-0.13001,-0.18103,-0.13,-0.10449,0.023078,-0.027944,0.15057,0.074038,-0.002472,0.09954,0.023047,-0.12998,-0.2065,-0.2575,-0.181,-0.02798,0.25257,0.17606,-0.002467,0.023047,0.099559,-0.18102,-0.1045,0.048549,0.048543,-0.002461,-0.02795,0.099564,0.22709,0.20155,-0.18101,-0.18101,-0.20652,-0.10449,-0.027944,0.048567,0.023047,0.25256,0.20155,0.20156,-0.1045,-0.33403,-0.33404,-0.20651,0.048561,0.099583,0.048561,0.17606,0.22707,0.17606,-0.053488,-0.18102,-0.25752,-0.053476,-0.053458,-0.027956,0.099546,0.15058,0.22708,0.09954,-0.10452,-0.20652,-0.078966,-0.027969,-0.23199,-0.053464,0.22708,0.17606,0.048549,0.15057,-0.20653,-0.053495,-0.078977,-0.12999,-0.05347,0.074069,0.023047,0.12504,0.22707,0.22707,0.07402,-0.027993,-0.35953,-0.23198,-0.12996,-0.027944,0.074051,0.20158,0.22708,0.20156,-0.10451,-0.12999,-0.15549,-0.18099,-0.078959,-0.078959,0.048549,0.22707,0.2781,-0.002472,-0.13001,-0.10449,-0.15549,-0.002472,-0.2065,-0.25749,0.099564,0.35461,0.25259,-0.002497,-0.15551,-0.15549,-0.078996,-0.1555,-0.23199,-0.12996,0.15056,0.17607,-0.053476,0.023029,-0.002479,-0.079008,-0.12999,-0.12998,-0.053464,-0.053476,0.12507,0.074069,0.074038,0.20156,-0.002479,-0.1555,-0.053495,0.072198,-0.029808,0.1487,0.072198,0.22521,0.1487,0.25071,-0.053476,-0.002485,0.17609,-0.002436,-0.15548,-0.027944,0.048549,0.07402,-0.10449,-0.13001,-0.002491,0.074051,0.023047,-0.10447,0.099595,-0.053446,0.048536,0.023029,-0.15551,0.099521,-0.07899,-0.078977,0.048549,-0.053451,-0.078959,0.099564,0.099559,-0.079014,-0.078984,-0.053476,-0.0535,0.074038,-0.078959,-0.10446,0.023072,-0.00243,-0.002472,0.048506,-0.002472,-0.078996,-0.027993,0.023041,-0.027944,-0.053464,-0.002448,-0.12997,-0.027974,0.023023,0.074038,-0.002479,-0.0535,0.074051,0.074069,-0.002448,0.048561,0.023059,-0.05347,0.074013,-0.053476,-0.002485,-0.0535,-0.053476,-0.053458,-0.078959,0.074069,0.048573,-0.12999,0.048525,-0.002472,-0.053488,-0.002503,0.099546,0.048567,-0.027969,0.099577,-0.002443,-0.053495,-0.002497,-0.053464,-0.002491,-0.027987,-0.002443,-0.07899,-0.002454,-0.002423,-0.00243,0.12505,0.074033,0.023023,0.12502,-0.053488,0.023041,-0.027974,-0.053446,0.023065,0.023047,-0.002467,-0.002467,-0.002461,-0.002491,-0.079008,-0.07899,-0.02795,-0.027956,-0.002443,-0.002436,0.15055,0.074026,-0.15549,-0.1045,-0.053495,0.048543,0.023054,-0.00243,-0.053446,-0.10447,0.074038,0.074013,-0.078984,-0.0535,-0.002497,0.048536,-0.027956,0.023078,0.04858,-0.002461,-0.027962,-0.002454,-0.02798,0.022998,0.048518,-0.027956,0.099577,0.023041,-0.027938,0.023078,-0.053495,0.074008,0.074033,0.048525,0.048525,0.023035,-0.15548,-0.002443,0.074069,-0.18097,-0.053488,-0.053476,-0.02798,-0.028011,0.022998,0.048536,0.048567,-0.053433,-0.027931,-0.002448,-0.0535,0.023017,0.074051,-0.053488,-0.0535,0.09954,-0.027956,-0.078953,0.048585,-0.027962,-0.002467,-0.027969,-0.027998,0.0485,-0.10452,0.048543,0.023072,0.023078,-0.18097,-0.027956,0.074038,-0.002485,-0.002461,-0.13,-0.18101,0.09954,0.12508,0.048561,-0.053446,-0.002454,-0.002472,0.048536,-0.07899,-0.002491,0.023017,-0.002461,-0.15548,-0.027969,0.074062,0.12509,-0.027956,-0.053495,0.02301,0.048531,-0.002467,-0.10447,-0.10448,0.074062,-0.002423,0.099583,-0.078977,-0.10452,-0.053495,0.074013,0.023041,-0.027944,-0.05347,0.023035,0.1761,0.048567,0.048531,-0.13001,-0.002454,0.099528,0.022992,0.048525,0.099583,-0.027944,-0.12997,-0.027969,0.048536,-0.002461,-0.10449,-0.028011,-0.07899,0.074062,0.074075,0.023054,0.048555,0.074062,0.074057,-0.027987,-0.10451,0.099528,0.09954,-0.002472,-0.002467,-0.078966,-0.053451,-0.078935,-0.002443,-0.002485,-0.002497,-0.002485,0.048531,-0.002467,-0.05347,0.15056,0.099588,0.15059,-0.053464,-0.002491,-0.027993,-0.053482,-0.053476,-0.002467,0.048543,0.023054,0.02309,0.048555,-0.002461,0.023029,0.02301,-0.053488,-0.027969,-0.07899,-0.002467,0.074087,0.074087,-0.02795,-0.002454,0.02301,0.099515,0.074033,-0.078984,-0.10449,-0.002454,0.048567,-0.078947,-0.002461,-0.002479,0.17606,-0.078984,-0.18102,-0.002479,0.023054,-0.078953,-0.05347,0.17609,0.09957,-0.10449,-0.028005,-0.0535,0.099534,0.12504,0.074062,0.09957,-0.078959,-0.078935,-0.053451,0.023023,0.15054,0.023017,-0.10449,-0.002472,0.023047,0.023041,-0.002443,0.023072,-0.027938,0.023035,-0.027998,0.099528,0.048531,0.023029,-0.078972,-0.053464,0.023047,0.023078,-0.18097,-0.1045,0.099521,0.074051,0.02301,0.099534,-0.027969,-0.027969,0.074057,0.023078,-0.078959,0.023035,-0.13001,-0.10449,0.15053,0.12503,0.048561,-0.002467,-0.12998,-0.10444,-0.002436,-0.002491,0.09954,0.023023,-0.002491,-0.053495,-0.002461,-0.02795,-0.002461,0.074075,0.023059,-0.002454,-0.027974,-0.10451,0.074013,0.023029,-0.10447,-0.027962,-0.027969,0.048567,0.023059,-0.078972,-0.027993,0.048512,0.074038,-0.027962,-0.002467,0.048549,0.023047,0.023047,0.048561,0.048555,-0.053482,-0.002485,-0.13001,-0.002491,0.074038,0.074062,-0.027944,-0.053433,-0.10446,-0.053488,0.17603,0.048543,-0.10449,-0.078996,-0.053476,-0.053458,-0.002443,-0.027931,-0.002448,-0.13002,0.074013,0.15055,-0.027987,0.074038,-0.10447,-0.10445,-0.15548,-0.053458,-0.002461,0.048536,0.12504,-0.053488,-0.078977,0.099552,0.099546,0.023035,-0.002443,-0.053427,-0.053446,0.023035,-0.10452,0.07402,0.023029,0.023029,0.048531,0.023035,0.048567,-0.053439,-0.078959,0.023035,0.12505,-0.027993,-0.028005,0.023023,-0.002454,0.048536,0.048573,-0.10445,0.023041,0.074044,-0.002479,0.02301,-0.002485,-0.13,-0.07899,0.074057,-0.002443,0.074062,-0.053458,-0.12998,0.074044,-0.079008,-0.002479,-0.13,0.074038,0.048555,0.048567,0.099559,0.04858,-0.078959,0.099521,0.17604,-0.0535,-0.027993,0.12508,-0.12996,-0.002461,0.023072,0.074093,-0.002461,0.023029,-0.1045,0.099521,-0.027993,0.12504,0.09957,-0.15547,-0.10445,-0.002436,0.048549,0.048543,-0.002479,0.09951,-0.002497,-0.02798,-0.053446,-0.10447,0.023065,0.023054,-0.027969,-0.078977,-0.078996,0.023005,0.048518,0.099534,0.048549,0.023059,0.023084,0.048585,-0.05347,0.02301,-0.078996,0.02301,-0.002497,-0.002467,-0.02795,-0.002461,-0.027944,-0.00243,-0.05347,0.022998,0.023017,0.023035,-0.078996,-0.002461,-0.053439,-0.002443,-0.053446,-0.027938,-0.027974,0.022998,-0.002472,0.048525,0.048512,-0.027956,0.023059,-0.10449,-0.002436,0.099588,-0.078972,-0.002491,-0.053464,-0.078996,-0.13002,0.074057,0.048549,0.074062,0.074087,-0.027944,-0.053482,0.074033,-0.027969,0.023029,-0.13,-0.078966,-0.053458,0.048536,0.09957,-0.002448,-0.078966,0.048531,-0.002485,-0.028018,-0.027987,-0.027956,0.04858,0.074062,-0.053464,-0.053476,-0.053464,-0.002491,0.023023,0.023035,-0.027969,-0.078972,-0.078972,0.074069,-0.053446,0.023065,-0.12998,-0.053506,-0.079002,0.099515,0.074026,0.099559,-0.002448,-0.10446,-0.053464,0.048536,0.12507,-0.05347,-0.10449,-0.027993,0.12502,0.048543,0.023054,-0.078953,-0.078966,-0.027944,0.048525,0.099564,0.048531,0.022998,-0.078996,-0.027944,-0.002461,0.074051,0.048567,0.023059,0.023023,-0.027993,0.048531,-0.027987,-0.053488,-0.053464,-0.02795,0.048555,0.074087,-0.002436,-0.027962,0.099528,0.023023,0.07402,0.023005,0.048555,-0.078959,-0.002454,0.023072,-0.002448,-0.002479,-0.078977,0.048525,0.099534,-0.002479,-0.02798,-0.10447,-0.078959,0.023059,-0.053451,0.074038,0.074051,-0.0535,0.074033,0.022998,0.12504,-0.12997,-0.15548,-0.027925,0.023078,-0.002472,-0.027993,-0.027993,0.15055,-0.12999,-0.053488,0.099577,0.023054,-0.002448,-0.027938,0.074038,0.074008,-0.027987,-0.07899,-0.053464,-0.02798,-0.053464,-0.10447,-0.078953,-0.002454,0.023041,0.15054,-0.12999,-0.027993,0.048506,0.12506,-0.078966,0.048555,-0.078947,0.074062,0.023059,-0.05347,-0.002479,-0.053495,0.048512,0.023047,-0.05347,-0.078972,0.12507,0.048561,0.09957,-0.027987,-0.0535,0.048525,-0.002485,0.048549,-0.12997,-0.181,0.074069,0.074081,0.074062,-0.053488,-0.027998,0.07402,0.023047,0.074051,-0.10447,0.048555,-0.00243,-0.078953,-0.078984,0.074013,0.12504,-0.002497,-0.13002,0.048536,0.074069,-0.027925,-0.10445,-0.078972,0.099564,0.22706,0.12502,0.022986,-0.07899,-0.12997,-0.053433,-0.10447,-0.053439,-0.027938,0.099577,-0.002497,-0.13002,0.15052,0.048525,-0.002485,0.074057,0.074081,-0.10444,-0.12996,-0.027974,0.074038,0.023017,0.12504,0.023035,-0.181,-0.078972,-0.027969,0.12509,0.048555,0.048543,-0.053495,0.023017,-0.053506,0.02301,0.12505,-0.027944,-0.053458,-0.053439,0.074062,0.074051,0.074038,0.048512,0.12503,0.02301,-0.053464,-0.10447,-0.027962,0.023059,-0.002436,-0.002443,0.048543,-0.002485,-0.00251,0.048531,0.20157,0.048573,-0.10445,-0.10447,-0.078972,0.099546,0.12504,-0.053476,-0.002491,-0.0535,0.048536,0.09957,-0.002448,-0.027956,0.048555,-0.05347,-0.002467,0.048531,-0.13002,-0.002485,0.099534,0.099577,-0.053446,-0.053433,-0.002443,0.074038,-0.002491,-0.02798,-0.079002,0.12504,0.20156,0.048536,-0.027944,-0.10443,-0.053427,-0.027956,-0.002491,-0.027987,-0.053495,0.074033,-0.027987,-0.02798,-0.027956,0.074087,0.074087,-0.027974,0.02301,-0.079008,-0.028005,-0.002461,-0.10447,0.023054,0.048555,0.023072,0.048561,0.023054,0.07402,0.099515,-0.053513,0.023029,-0.027969,-0.002443,0.023054,-0.078966,0.048567,0.12504,0.12504,-0.053476,-0.13001,0.023017,-0.07899,0.074069,0.023059,-0.00243,0.048585,-0.002461,-0.0535,-0.028018,0.12503,0.099546,-0.053464,-0.053464,-0.002461,-0.002454,0.12508,0.048561,0.023029,-0.13001,0.07402,0.023035,-0.10448,-0.12999,0.023035,0.12508,0.048567,-0.15548,-0.053488,0.048506,-0.002491,0.074044,0.099546,0.023035,-0.002454,-0.10447,-0.053433,-0.078953,0.099528,0.12503,0.048512,0.048536,-0.002467,-0.027962,0.023059,-0.002454,-0.053451,-0.002461,0.023035,0.099534,0.023005,-0.13002,0.048543,0.074069,0.048561,0.023084,-0.002443,-0.07899,-0.027993,-0.002491,0.02301,-0.002479,0.12507,0.074075,0.04858,-0.053439,-0.078972,-0.078977,0.048506,0.048512,-0.079008,-0.053488,0.048555,0.048567,0.12507,-0.002443,-0.12997,-0.18098,0.023035,-0.079002,0.12503,0.15054,0.048543,0.048567,-0.002436,0.074081,-0.10447,0.048536,0.023017,0.048536,-0.027969,-0.027987,-0.027987,0.048536,-0.053458,-0.027938,0.1251,0.023041,-0.002485,-0.002485,0.048536,0.023041,-0.053476,-0.027962,-0.10447,-0.00243,-0.053446,-0.02795,-0.002485,0.099521,0.074038,-0.053488,-0.053488,0.023041,-0.053439,-0.10444,0.023059,0.12504,0.048536,-0.13002,0.048512,-0.02798,0.023065,-0.002443,0.074038,0.17609,0.04858,-0.13002,0.023047,-0.027974,-0.027993,-0.002491,-0.002461,-0.078984,-0.002448,-0.027925,-0.027944,0.023017,0.12504,0.099534,-0.053506,-0.027987,-0.053464,-0.05347,0.099564,0.074087,-0.027956,0.12507,-0.027969,-0.002497,0.07402,0.048536,-0.027974,0.048549,-0.027944,0.023084,-0.027956,-0.002461,0.074038,-0.028005,0.023029,0.074033,-0.02798,-0.027944,0.099559,-0.027938,-0.053433,-0.002479,-0.07899,-0.053495,0.074008,-0.053476,-0.002472,0.023041,0.074069,-0.078966,-0.053446,-0.002443,0.12505,-0.002491,0.023017,-0.10449,0.099552,-0.002436,-0.027962,-0.10446,0.074081,-0.002461,-0.1045,0.023041,-0.002497,-0.002472,-0.027962,0.023029,0.023047,0.023084,-0.053464,-0.053464,0.20156,0.07402,0.048518,0.074038,-0.10447,-0.18097,-0.12998,0.074069,0.12509,-0.002454,-0.053513,0.07402,0.048531,0.048536,-0.10449,-0.053476,0.074062,0.023084,-0.002443,0.023035,-0.053488,0.023035,-0.0535,0.023023,0.023023,0.048561,-0.002436,-0.078953,0.048561,0.074062,0.023017,0.048512,0.02301,-0.053482,-0.078984,0.15057,0.074069,-0.12996,-0.027944,-0.027944,0.15053,-0.0535,0.048525,0.12503,-0.002472,-0.00243,-0.12998,0.048561,0.12509,-0.027956,-0.053495,-0.027993,0.023017,0.023023,-0.05347,-0.002448,-0.053464,0.048573,0.074087,0.023054,0.09954,-0.027993,-0.002491,0.074038,-0.027969,-0.002461,-0.027962,-0.002436,-0.053446,0.023059,0.023047,-0.002491,-0.053519,-0.079021,-0.053482,0.1251,-0.027938,-0.12998,-0.12998,0.15057,0.25258,-0.002472,-0.13003,-0.002491,-0.053464,-0.053433,-0.053464,0.048549,0.023072,0.023065,0.023017,-0.053513,-0.053506,-0.002472,0.15056,0.074062,-0.12999,-0.02795,-0.053427,0.048567,0.074038,0.022992,-0.0535,-0.027969,0.099546,0.074069,-0.027931,-0.053439,-0.002448,-0.053458,0.048525,0.074013,0.048518,-0.002472,0.023041,-0.027974,-0.10447,-0.078935,0.048567,-0.05347,0.12503,-0.002479,-0.002472,-0.002485,0.023023,-0.002467,-0.027944,-0.053446,0.023059,-0.002448,0.023017,-0.002503,-0.002485,-0.002472,-0.053495,-0.002467,-0.053446,-0.002423,0.023054,-0.027987,0.15056,-0.12999,-0.10451,0.15054,0.048549,-0.053446,-0.02795,-0.027956,-0.00243,-0.002443,-0.079002,-0.053513,0.02301,0.074057,-0.10447,0.023035,-0.002467,0.1251,0.074075,-0.053464,0.048543,-0.13001,0.02301,0.02301,0.023041,0.074062,-0.078953,-0.027938,-0.027956,-0.078984,0.048518,0.099546,-0.027998,-0.027993,-0.13001,0.048561,-0.053446,-0.10444,-0.002461,-0.07899,-0.002467,-0.027969,0.023017,0.12502,-0.002485,-0.002472,-0.002448,-0.053421,-0.12995,-0.12999,0.048512,0.023017,-0.02798,-0.002467,-0.027987,0.12505,-0.002443,-0.10444,-0.10444,-0.053476,0.02301,0.074013,0.048531,-0.027993,-0.12999,0.074051,0.099577,-0.027925,-0.078972,0.074051,0.099546,0.048531,-0.053513,0.048506,-0.15549,-0.027956,-0.002436,0.048585,-0.053446,-0.078977,0.15054,-0.1045,0.023035,-0.053488,0.023035,0.074051,0.023047,0.023096,0.023065,0.023017,-0.002479,0.074057,0.023017,0.099528,-0.027969,-0.002454,-0.10447,-0.10447,0.048573,0.023054,-0.078984,-0.1555,-0.10451,0.02301,0.17606,0.023065,-0.053451,-0.053446,-0.002436,0.074057,-0.078984,-0.079002,0.12504,-0.053476,-0.053464,-0.002472,-0.027956,0.023078,-0.002443,-0.078984,-0.002491,0.07402,0.023035,-0.053482,-0.15553,0.12508,0.048561,0.15061,0.099577,0.099552,0.022992,-0.002491,-0.053495,-0.02798,0.023054,0.023047,-0.078959,-0.10447,-0.02795,-0.027956,0.12507,0.048525,0.099515,0.023023,-0.027974,0.048567,-0.027969,-0.053464,0.023065,-0.02795,-0.027974,-0.002479,0.048512,0.09954,0.099552,-0.002454,-0.02795,0.048573,-0.002448,-0.078977,0.15057,0.074044,-0.028011,-0.1045,-0.02798,0.15057,0.15058,-0.078947,0.074075,0.074069,-0.053513,-0.053495,0.12504,-0.027998,-0.002461,-0.053439,-0.02795,-0.027938,-0.00243,-0.05347,0.048518,0.12505,-0.079008,-0.028005,0.023041,0.023065,-0.002448,-0.078959,0.023072,0.074062,-0.078996,0.07402,0.074033,-0.002485,-0.002479,-0.002454,-0.002448,0.04858,-0.002454,-0.002461,-0.002479,-0.053519,0.048518,0.023029,0.048531,0.023072,-0.053451,-0.053464,0.023059,0.023059,0.048536,0.099546,0.074026,0.12503,0.099552,-0.053464,-0.078977,0.074069,0.074087,-0.002467,0.099534,-0.053482,-0.2065,-0.053495,0.074033,0.074051,0.023065,0.048555,-0.10446,-0.002448,-0.02798,-0.027993,-0.053495,-0.07899,0.12507,0.074062,0.023059,-0.002423,-0.002448,0.074033,0.099521,-0.027987,-0.10449,-0.027987,-0.002485,0.023047,-0.053439,0.023078,-0.002448,-0.027969,0.023029,-0.0535,0.02301,-0.078996,-0.027956,0.023041,0.099559,0.023084,-0.10445,-0.10448,-0.079002,-0.13002,0.048525,0.023035,-0.027969,0.023047,0.074062,0.048555,0.048555,-0.078977,-0.02798,-0.07899,-0.053506,-0.027987,-0.002467,0.074057,0.023072,0.099583,-0.002454,-0.002461,0.07402,-0.002479,-0.07899,-0.002479,-0.027987,-0.002467,0.074057,0.023072,0.023078,-0.078959,0.023035,-0.053495,-0.079014,0.07402,0.074038,-0.027956,0.048573,-0.078947,-0.078941,-0.05347,0.12504,-0.002472,0.048525,-0.053488,-0.002479,0.023047,0.074062,0.048567,-0.027925,0.048555,-0.07899,-0.028011,-0.053513,0.099528,0.023035,0.023047,0.099577,-0.10445,-0.053446,-0.053458,0.15054,0.048518,0.12503,-0.05347,-0.002461,-0.1555,0.023054,0.099577,0.074087,-0.02795,-0.13,0.048531,-0.002491,0.0485,0.023029,0.023065,-0.002454,-0.078947,-0.053458,-0.078966,0.074044,-0.1045,-0.00251,-0.027993,0.023035,0.048567,0.09957,-0.027925,-0.002436,0.023035,0.023005,0.023023,0.074044,-0.181,-0.12999,-0.053476,-0.002467,0.074062,0.04858,0.074062,0.074033,-0.13,-0.18104,0.023023,0.048536,0.17609,0.09957,0.074087,-0.053439,-0.053464,-0.079008,0.12502,0.15052,0.02301,-0.002485,0.048549,-0.13,-0.15547,0.048585,0.12508,0.074038,-0.002503,-0.10452,0.099528,-0.002467,0.023059,-0.078953,-0.078947,-0.078972,-0.12999,0.074026,0.074026,0.074013,-0.053488,-0.027969,0.023065,-0.027956,0.023059,0.074062,0.023059,-0.002467,-0.078996,0.099503,0.099521,-0.078984,0.023047,-0.002461,-0.002423,-0.078935,0.048561,-0.002479,0.023005,0.048512,-0.002467,-0.027974,-0.002467,0.023047,-0.002418,-0.027931,-0.002448,0.12503,-0.079008,-0.078984,-0.053476,-0.002485,-0.002467,0.12507,0.048585,-0.10444,-0.10449,0.074013,0.048531,-0.027987,-0.07899,-0.02798,-0.027956,-0.078953,-0.027956,0.048561,0.023047,0.023029,-0.15553,0.0485,0.074038,0.048561,0.023047,0.09957,0.023059,-0.027925,-0.12998,0.09954,0.048531,0.048525,-0.053506,-0.10449,-0.02795,-0.00243,0.074062,-0.078972,0.023047,0.09954,-0.002472,0.048536,0.074038,0.02301,-0.053451,-0.078947,-0.002423,-0.00243,-0.078984,0.099534,0.048518,0.099534,0.048536,-0.027969,-0.002454,0.048536,-0.027956,0.074075,0.074062,0.048549,-0.1555,-0.13001,-0.079002,-0.1045,-0.027962,0.12507,0.04858,-0.053439,-0.15547,-0.002491,-0.002516,0.15052,0.20155,-0.10449,-0.053433,-0.12996,0.023047,-0.078953,-0.10447,0.023047,-0.078996,0.048512,0.048512,0.099546,0.074062,0.023054,0.15059,0.048561,-0.027956,-0.1045,-0.12999,-0.10452,0.099521,0.074038,-0.053464,0.074069,-0.02792,0.048585,0.048561,0.048525,-0.13002,-0.028005,-0.027998,0.099534,0.09957,0.023059,-0.10445,0.09957,0.023047,0.048536,0.048518,-0.053513,-0.028011,-0.002467,-0.027931,-0.002454,-0.00243,-0.078972,-0.002472,0.074033,-0.053488,0.02301,0.12502,-0.1555,-0.078959,-0.002443,0.09957,-0.10445,-0.027956,0.023029,-0.002479,-0.028005,-0.053488,-0.027974,0.048536,-0.002461,0.048561,-0.053427,-0.053464,0.099534,0.023035,-0.13,-0.13001,0.074026,0.15057,0.023047,0.074062,0.023072,-0.18098,-0.18101,-0.002491,0.048525,-0.002467,0.074038,0.074038,0.048549,0.074081,-0.053439,-0.12998,-0.027993,-0.002497,-0.002479,-0.13,-0.23203,0.048531,0.074069,0.17611,0.023078,-0.002467,0.07402,0.048543,-0.07899,-0.079008,0.048531,0.023059,-0.002448,0.023047,-0.053464,0.048549,0.074051,-0.18101,-0.20653,0.048531,-0.027974,0.099552,-0.027938,0.023065,-0.002448,0.023047,-0.002467,-0.027987,0.048518,-0.002503,0.023029,-0.10448,0.023054,-0.002418,-0.002418,-0.002461,0.15053,-0.079021,0.02301,-0.053476,-0.05347,-0.002454,0.023041,0.048549,-0.053446,-0.10446,-0.053482,-0.0535,-0.002491,0.048506,-0.027987,0.074062,-0.053433,-0.002436,0.023059,-0.002461,0.15054,-0.078984,-0.079002,-0.053506,-0.002467,-0.053451,-0.02795,0.09957,-0.00243,0.048536,0.12504,0.048536,-0.027993,-0.15551,-0.12998,-0.053464,0.023041,0.023072,0.04858,-0.02798,0.074051,-0.15551,-0.028005,0.048536,0.023017,-0.002436,-0.002443,0.04858,0.023078,-0.002485,-0.027987,-0.027987,-0.079014,-0.027993,-0.053458,-0.027962,0.023047,-0.027938,0.099595,0.048536,0.023023,-0.15553,-0.002467,-0.027993,-0.1045,-0.053458,0.12509,0.023047,0.074075,-0.002436,0.074038,0.023023,-0.028011,-0.002479,-0.053464,-0.002448,0.074044,0.048561,0.048573,-0.053451,0.048536,-0.053506,0.048512,-0.027993,-0.027956,0.023059,-0.002461,-0.027944,0.099588,-0.002461,-0.13002,0.02301,0.15054,0.048531,-0.078972,0.074038,0.12509,-0.027925,0.04858,0.023041,-0.07899,-0.18103,-0.079014,0.099528,0.074051,-0.002454,0.023047,-0.027931,0.074075,-0.027974,-0.053482,-0.10449,-0.079008,0.023017,-0.02798,0.023059,0.023047,0.074044,0.048567,-0.10446,-0.002485,-0.053495,-0.12999,0.02301,0.07402,0.12505,0.048567,-0.12995,-0.12996,-0.002443,-0.078984,-0.028005,0.022998,0.074038,0.023047,-0.002467,0.048555,-0.002443,-0.027931,-0.05347,0.099528,0.048506,-0.1045,-0.078996,-0.078996,0.12507,0.12509,0.048585,0.074075,-0.027974,0.023047,0.074038,0.023005,-0.002491,-0.027974,0.023041,0.099559,-0.027962,-0.027938,-0.027931,-0.002472,-0.13002,-0.028005,0.099534,0.12504,0.099552,0.074069,0.17609,-0.002443,-0.15548,0.048543,0.023035,0.07402,-0.002497,-0.027974,-0.027944,0.023054,-0.027944,-0.078966,-0.002467,0.02301,-0.027998,-0.002485,0.023035,0.023059,0.099564,0.048543,-0.10449,-0.027956,0.12508,-0.053482,0.023035,-0.0535,0.048512,-0.027974,0.023059,-0.002436,-0.002423,-0.053433,-0.078966,-0.002467,-0.18103,-0.053513,-0.10452,0.048512,0.074038,-0.002454,0.1251,-0.053439,0.023054,-0.13001,-0.02798,-0.053495,-0.002485,-0.053482,-0.053488,0.023054,0.023065,-0.00243,-0.027956,-0.027993,-0.028005,-0.002497,-0.053476,-0.027956,-0.053458,-0.002443,0.048555,0.023065,-0.002454,-0.002461,-0.002479,-0.002503,-0.079008,0.07402,0.048536,-0.078959,-0.002436,0.023096,-0.027944,0.048525,0.022998,-0.079021,-0.028005,-0.002461,0.023072,0.074062,0.023065,0.12508,-0.027969,-0.078996,-0.078996,0.023041,0.099552,0.048531,-0.027969,-0.078959,-0.002443,0.023059,-0.053476,-0.15552,0.023017,0.048525,0.023035,-0.053476,-0.002454,0.023047,-0.053458,-0.10447,-0.002461,0.074038,0.048531,-0.002472,-0.078972,-0.078977,-0.027962,-0.053464,-0.078984,-0.002448,-0.002461,0.048512,-0.027993,-0.027993,0.048518,0.048543,0.099559,-0.10446,0.048561,-0.078966,-0.002461,0.048518,0.048518,0.048536,0.074038,-0.10448,-0.002443,0.023065,0.023072,0.023059,-0.053482,0.12504,0.023035,-0.078996,-0.002485,-0.1045,0.023047,-0.027962,0.023072,-0.053446,0.023035,-0.002491,0.074013,-0.002497,0.09954,-0.05347,-0.10449,-0.078972,0.023059,0.048573,-0.027956,-0.078977,-0.079002,-0.028011,0.048512,-0.002485,-0.002461,-0.002436,-0.02792,-0.002436,0.048555,-0.002491,-0.028005,-0.002491,-0.027987,-0.053476,-0.053464,-0.002467,-0.053464,0.023047,-0.002461,0.15055,-0.10449,-0.027974,-0.002479,-0.13001,-0.078977,0.074062,0.09957,0.12507,-0.078966,-0.13001,0.023054,0.023017,0.023017,0.023023,-0.002461,0.099564,-0.078941,-0.078947,-0.078977,0.048525,-0.002497,-0.002485,0.023029,-0.078977,-0.078966,-0.10447,-0.027944,0.20158,0.12505,0.023041,-0.0535,-0.053495,0.048525,-0.13,-0.002467,0.074057,0.12507,0.20159,-0.002443,-0.10449,-0.13002,-0.10451,-0.002497,0.048549,-0.027956,-0.002454,-0.02795,0.048561,0.023041,0.099546,0.048536,-0.002497,-0.28305,0.048536,0.023059,-0.027938,-0.00243,0.1506,0.023047,-0.028005,-0.079002,0.02301,-0.053482,-0.05347,0.048549,0.074057,0.023054,-0.12996,-0.078966,-0.027962,-0.078996,0.02301,-0.002485,-0.002503,0.12506,0.048561,0.023072,-0.027913,-0.002443,-0.002491,-0.079021,0.023005,-0.002491,-0.027969,-0.053458,-0.10447,-0.002448,0.048561,-0.002454,-0.002448,-0.02798,-0.079021,0.048506,0.023035,0.09957,-0.002443,-0.027925,-0.078947,-0.10445,-0.027969,-0.13002,-0.002503,-0.053506,0.023035,0.023029,-0.002454,0.074093,-0.002412,0.023065,-0.078996,0.099521,0.099534,-0.02798,0.023023,-0.002472,-0.027969,-0.002436,0.02309,0.048561,0.048525,-0.15553,-0.079008,-0.078984,-0.002467,0.023047,0.074044,0.023054,-0.027944,-0.027956,-0.053458,-0.053488,-0.002491,-0.028011,-0.1045,-0.002461,-0.002436,0.048561,-0.002454,-0.10449,0.023023,-0.053482,-0.0535,0.07402,0.023035,0.023047,-0.002423,0.048555,0.048561,-0.053476,-0.002479,0.048543,-0.002479,0.02301,-0.078996,-0.078984,0.023059,0.074093,0.023084,0.023072,-0.078984,-0.10451,0.09954,0.15054,0.074038,0.023047,-0.053451,-0.002461,-0.027962,0.023035,-0.027993,-0.053495,-0.053506,0.099528,0.15055,0.25259,-0.053458,-0.15545,-0.12995,0.074062,0.048525,-0.002485,0.023029,0.023023,-0.002479,0.074026,-0.002467,0.099564,0.023084,0.023059,-0.10449,-0.027987,0.023017,0.023023,-0.07899,0.074051,-0.05347,0.074057,-0.078959,-0.10447,-0.078996,-0.13002,0.074057,0.048543,-0.027974,-0.053464,-0.05347,-0.02795,0.048561,0.099564,-0.002467,-0.053482,0.023017,-0.053513,-0.028005,-0.002454,0.12509,-0.00243,-0.02795,0.023029,-0.002472,-0.07899,-0.002497,0.02301,0.023035,-0.053446,-0.002454,0.023047,0.12508,0.023059,-0.078977,-0.13001,0.048512,0.023029,-0.053476,-0.027974,0.099559,0.04858,-0.053433,-0.10447,-0.027993,-0.028005,0.02301,-0.027969,-0.053464,0.048555,0.074051,-0.053458,0.12509,-0.10447,-0.002485,0.17607,0.15055,-0.053488,-0.027974,-0.027962,-0.12996,-0.10447,-0.078959,-0.02795,-0.027974,0.023023,-0.13,-0.027987,-0.10449,0.048536,0.074057,0.15059,0.09957,-0.002448,-0.027969,-0.10449,-0.027974,-0.002479,-0.027987,0.099552,0.074062,-0.002461,0.023054,0.023047,0.023029,-0.1045,-0.15551,-0.078977,-0.002467,0.023041,-0.078947,-0.027944,-0.10445,-0.078977,0.099534,0.074038,0.099521,0.12504,-0.027969,-0.10447,-0.078959,-0.053458,-0.053451,0.074062,-0.002461,-0.1555,-0.079014,-0.027998,0.074026,0.099546,0.12509,-0.053433,-0.12996,-0.10448,-0.027974,0.099521,-0.027993,0.074038,-0.078977,-0.05347,0.099559,0.023065,0.074087,-0.053451,-0.002491,-0.002497,0.048518,0.074038,-0.078984,-0.002461,-0.002467,0.023059,-0.002423,0.048561,-0.053476,-0.10451,0.022998,0.074038,-0.053482,-0.12999,0.048561,-0.027931,0.023078,-0.002454,-0.079008,0.048512,0.09951,0.023035,-0.078972,-0.027969,-0.053476,0.048543,-0.027944,0.023054,-0.05347,-0.053482,-0.027987,0.023005,-0.002503,-0.027962,-0.002443,0.023072,-0.002436,0.074057,0.12504,-0.0535,-0.15551,-0.10451,-0.053495,-0.05347,-0.053451,-0.053451,0.048561,0.074069,-0.02798,-0.027974,-0.027998
0.022998,-0.027993,-0.027974,0.074062,0.023047,-0.002436,0.048592,-0.002461,-0.027993,-0.1045,-0.10451,-0.002461,-0.002461,-0.02798,-0.027956,0.0741,0.023059,-0.078977,0.099528,-0.079002,-0.053495,-0.027998,0.099546,0.023059,-0.15547,-0.027944,-0.027956,-0.027956,-0.002485,0.20158,-0.23204,-0.027998,-0.02798,0.12507,0.074057,-0.027931,-0.027931,-0.05347,0.12505,-0.053488,-0.15551,0.022998,0.20156,0.09957,-0.15547,-0.053451,-0.002423,-0.053458,0.048525,0.048531,-0.079014,0.048525,0.048536,0.023054,-0.078953,-0.078959,-0.002443,0.023054,-0.002479,-0.13002,0.074013,0.048536,0.048561,-0.027956,-0.05347,0.17607,-0.12994,-0.078947,0.048531,0.074013,0.048525,0.023029,0.048549,0.048536,-0.05347,-0.002443,-0.002436,-0.078959,0.099546,0.023023,0.048512,-0.181,-0.078977,0.048549,0.12507,0.023047,0.09957,0.023041,-0.002454,-0.027974,-0.10449,-0.10452,0.023035,0.074062,0.074075,-0.027962,-0.027956,0.048561,0.15054,-0.027993,-0.053495,-0.002472,-0.002461,-0.078984,0.023035,-0.002461,0.048585,-0.027956,-0.2575,0.099546,-0.00251,-0.079039,0.048518,0.023029,0.048573,0.099608,0.048592,-0.053464,0.023029,-0.027998,-0.053506,-0.002491,0.023023,-0.027962,-0.027944,-0.002418,0.023078,-0.002461,-0.027987,-0.027998,-0.028011,-0.053495,0.048555,0.023065,-0.002448,0.048567,-0.002454,0.023029,0.048531,-0.002491,-0.053495,0.048549,-0.10447,-0.12998,-0.05347,0.099577,0.048573,0.048549,0.15055,0.12505,-0.078996,-0.027993,-0.027993,-0.30851,-0.10447,0.1251,0.099595,-0.05347,-0.028005,-0.13002,0.048518,0.048543,-0.027962,-0.002454,-0.002461,0.048555,0.048561,0.048567,-0.10449,-0.028011,0.15052,0.074026,0.023047,-0.027956,-0.05347,0.12508,-0.027944,0.023059,-0.053476,-0.15551,0.099521,0.15053,0.048549,-0.078966,-0.078959,-0.078966,0.048567,0.099564,-0.13001,-0.10452,0.099534,0.099552,-0.002461,0.074062,-0.027962,-0.027944,-0.078966,0.074038,0.074026,0.048536,-0.002491,0.023005,-0.002491,0.09957,-0.027938,0.023065,0.15059,0.048567,-0.10449,-0.10451,-0.002497,0.074038,-0.027962,-0.20651,0.023035,0.04858,-0.078947,-0.1555,-0.002479,0.07402,0.074013,0.023017,-0.002448,0.074069,-0.002436,0.023059,-0.078959,-0.05347,-0.002479,0.023017,-0.002497,0.099503,-0.078972,-0.027944,-0.002454,0.048561,-0.002454,-0.027956,0.074057,0.074033,0.02301,-0.002491,-0.07899,-0.053458,-0.027944,0.099588,0.048567,-0.002461,0.074026,0.023035,-0.13001,-0.10449,0.023023,-0.002467,0.12507,0.023072,-0.10444,-0.15548,0.099528,0.074038,-0.027987,-0.002497,-0.10449,0.023047,0.048573,0.04858,0.1251,0.048536,-0.002497,-0.13002,-0.053464,0.074062,-0.10451,0.17604,0.048561,0.12511,-0.053427,-0.027974,-0.028005,0.099515,-0.002485,-0.1555,-0.053458,0.074075,-0.027974,-0.002467,0.048549,0.15057,-0.053464,0.099534,-0.10451,-0.07899,-0.053458,-0.078953,-0.002461,0.074038,-0.053458,-0.10447,-0.027987,0.048512,-0.13001,0.023005,0.12503,0.074062,-0.027969,0.023103,-0.12994,0.023035,-0.028011,-0.078972,0.0485,0.099521,-0.2065,-0.078935,0.099552,-0.027956,0.023059,-0.02795,0.023035,-0.079033,0.048512,0.023029,-0.027974,0.048543,0.099583,-0.002436,-0.002448,0.048555,0.023035,-0.002472,-0.053506,-0.053513,-0.05347,-0.10446,-0.05347,0.074087,0.02309,0.048549,-0.053506,-0.07899,-0.002503,0.099521,0.099546,-0.002448,-0.078966,-0.002448,-0.053415,-0.10449,0.099528,0.023047,-0.002503,0.074008,-0.078977,-0.002454,0.09954,-0.053433,-0.078928,-0.053488,0.15054,-0.053476,-0.078996,-0.027998,-0.002479,0.048549,0.048536,0.048573,0.1506,-0.002479,-0.078984,-0.1045,-0.13002,0.023023,-0.10448,-0.027974,-0.002467,0.048585,-0.053464,-0.027962,0.09954,-0.07899,-0.10451,0.048536,-0.002461,0.074057,0.023041,0.074075,-0.12995,-0.10448,0.12503,0.07402,0.023023,-0.002491,-0.027987,0.048573,0.074069,0.023035,-0.078953,-0.002448,-0.05347,-0.10452,-0.027993,0.023041,-0.002467,0.074051,-0.027956,-0.078947,-0.053464,0.023035,0.023023,0.074044,-0.079008,-0.002497,-0.002461,-0.10447,-0.027969,0.09957,0.1506,0.023047,0.074013,-0.027993,-0.002472,-0.002491,-0.002461,0.074057,-0.027974,0.04858,0.074093,-0.002461,-0.002516,-0.027974,-0.13001,-0.002497,0.023041,0.048549,-0.002467,-0.00243,0.074081,0.023023,0.074038,-0.078977,-0.053495,-0.027998,-0.05347,-0.027956,-0.027969,-0.053451,0.15058,0.074038,-0.027974,0.099546,-0.002497,-0.027987,0.099559,0.15057,-0.027974,-0.027938,-0.027944,-0.053464,0.099534,-0.0535,-0.053495,-0.053476,-0.002491,-0.078966,0.099583,-0.027944,-0.10447,0.12506,0.048536,0.12504,-0.002503,-0.028005,-0.1045,0.023041,-0.027944,-0.027931,-0.002436,0.048536,0.12504,-0.13001,-0.10449,-0.002491,0.074026,-0.027969,0.048561,-0.002412,-0.078959,-0.1045,0.048531,0.048543,-0.002491,0.022998,-0.002479,0.17607,-0.12996,-0.078947,0.048573,-0.027944,-0.027974,-0.053513,-0.002497,-0.002472,0.023029,-0.13,0.099564,0.048573,0.1251,-0.002436,0.048518,-0.00251,0.023017,-0.027962,-0.15548,-0.078953,-0.002472,0.074069,-0.027944,-0.002454,0.074026,-0.028018,-0.027993,-0.05347,-0.078966,0.048549,0.048536,-0.10446,-0.027925,0.048549,0.07402,0.023005,-0.078996,-0.027962,-0.10449,-0.053476,0.099552,0.048561,0.074087,-0.053464,0.023023,-0.028005,0.048506,0.048536,-0.12998,0.023041,-0.053476,0.09957,-0.002436,-0.002448,0.074033,0.023017,-0.13002,-0.10449,0.023035,-0.078972,0.048555,0.023072,-0.002448,0.023047,0.074038,-0.027969,-0.002485,0.022998,0.023035,-0.002443,0.074051,-0.002454,-0.00243,-0.027956,-0.028005,-0.078996,0.023035,0.12504,0.048512,-0.027969,-0.027944,-0.027931,-0.002436,-0.053458,-0.002491,-0.002491,0.074038,-0.02798,-0.0535,0.048531,0.074062,-0.053439,0.1251,-0.027962,-0.027998,-0.002491,0.048531,0.09954,0.023029,-0.12999,-0.12998,0.023047,0.099577,0.09957,0.023035,-0.1555,-0.13001,-0.13001,0.023017,0.15056,0.15057,0.099588,-0.002436,0.023054,-0.079014,-0.028005,0.09954,0.023041,-0.078984,-0.027969,0.099564,-0.053446,-0.02792,0.023059,0.15053,-0.053513,-0.10451,-0.002461,-0.078984,0.023047,-0.027956,-0.002418,-0.002443,-0.027956,0.048518,0.074033,0.074002,-0.002472,-0.053476,-0.002467,-0.078972,-0.027944,-0.002418,-0.027938,0.023035,-0.10452,-0.027993,0.12504,0.048525,-0.002461,-0.027944,-0.02795,0.12508,-0.002461,-0.027962,0.02301,-0.027993,-0.002461,-0.181,-0.181,0.09957,0.048585,0.023054,0.099546,0.023054,-0.18103,0.074026,-0.002472,-0.18099,-0.07899,-0.002461,0.09957,0.074075,0.048561,-0.002472,-0.02798,-0.053513,-0.027993,-0.053488,-0.002454,-0.002436,-0.002454,-0.053458,-0.002467,0.074026,-0.02798,0.074038,-0.027974,-0.002467,-0.053476,-0.027969,0.023059,0.023072,-0.002436,-0.02798,0.023017,-0.10452,-0.028005,0.023035,-0.027962,0.12507,-0.002423,-0.10444,-0.10448,-0.0535,0.023017,0.07402,0.15054,0.074033,-0.053458,-0.027944,-0.02795,0.023047,-0.002448,-0.027974,0.099552,0.099521,0.023005,0.048549,-0.002443,0.074062,-0.027956,0.074087,0.048549,-0.027998,-0.079002,-0.078984,0.023023,-0.13,-0.002467,-0.002436,-0.053446,-0.002436,0.12505,0.099534,0.023023,-0.053506,0.074013,-0.10449,0.074062,0.023054,0.023072,-0.002443,-0.10448,-0.002467,-0.02798,-0.1555,0.074033,0.023029,-0.002467,-0.027969,0.099583,0.04858,-0.10448,-0.079021,0.17604,0.12505,-0.002479,-0.078996,-0.078972,-0.027969,-0.053446,-0.10444,-0.027944,0.09954,-0.002491,-0.028011,0.048518,0.074038,0.09957,-0.12996,-0.053464,0.074051,0.048549,0.12504,-0.053482,-0.13002,-0.13002,0.099552,0.12509,0.023065,-0.027931,-0.053451,0.048549,0.02301,0.048512,0.048531,0.023041,-0.12999,-0.13,0.074069,0.048592,-0.00243,-0.027974,-0.02798,-0.053476,0.099521,0.099521,-0.002467,-0.002461,-0.027969,-0.027944,-0.027931,-0.027956,-0.002472,-0.002467,-0.079008,-0.18101,0.12504,0.15057,0.099559,-0.10445,-0.027938,-0.078977,0.023035,-0.02798,0.074038,0.048531,0.048518,-0.1045,-0.10447,-0.002443,-0.053433,0.048561,-0.053482,-0.078996,-0.028005,-0.027998,0.074033,0.048549,0.048567,-0.053439,-0.10444,-0.10446,-0.053488,0.022998,0.074008,0.048518,0.048549,-0.053464,-0.05347,-0.027938,0.023059,-0.02798,-0.027962,0.048543,0.074026,0.023023,0.023035,-0.002467,-0.078966,0.023084,-0.053439,-0.053482,0.048536,-0.12999,0.048518,0.09954,-0.053464,-0.027974,-0.002454,-0.053427,-0.002448,-0.027969,-0.002467,0.023023,-0.10451,0.074013,0.048531,0.074075,0.048549,-0.027944,-0.02792,-0.027962,-0.079008,0.048536,0.074033,0.023005,-0.027962,0.023078,0.023054,-0.002461,-0.053451,0.048567,0.048531,-0.10451,0.048525,-0.002479,-0.078972,-0.078984,0.099552,0.04858,-0.002418,-0.002454,0.023017,0.023005,0.048525,-0.13001,0.074051,-0.002461,0.023035,-0.027956,-0.078947,-0.002436,-0.027987,0.022998,0.12504,-0.02798,-0.15551,-0.1555,-0.00243,0.048598,-0.053433,-0.078984,0.074026,-0.002467,0.048512,-0.10451,-0.053476,0.023035,-0.053451,0.023078,-0.00243,-0.05347,0.048525,-0.028005,-0.078996,-0.078984,0.023029,0.074038,0.048549,0.099583,-0.078935,-0.053464,0.12504,0.099546,-0.002479,0.02301,0.023023,-0.05347,-0.053446,0.048561,0.048561,0.074051,0.074044,-0.078977,-0.027993,0.022998,-0.027998,-0.027962,-0.027944,0.023072,0.04858,0.074069,0.023029,0.07402,-0.028005,-0.07899,-0.027956,0.074051,-0.002467,0.074069,0.099588,-0.002443,-0.027974,-0.002497,-0.079008,-0.053495,0.074026,-0.027962,0.048561,-0.027925,0.074062,-0.002479,0.22706,0.12505,-0.15551,-0.053476,-0.027969,0.048543,-0.027956,0.023065,-0.053439,-0.10449,-0.002503,-0.027987,-0.027993,-0.079008,-0.027974,0.048543,0.15058,0.099559,-0.00243,-0.002448,-0.12998,-0.07899,-0.079002,-0.002497,-0.002485,-0.002467,0.074069,-0.078947,-0.10444,-0.078972,0.074026,0.048525,0.023017,-0.15551,-0.002485,0.12505,0.074062,0.048567,-0.078959,0.048555,0.074038,-0.079002,-0.027993,0.12504,0.023047,0.048549,-0.12998,-0.053451,0.04858,0.12508,-0.02798,-0.15553,-0.002503,-0.027993,-0.002467,-0.002472,0.048549,-0.10445,-0.053446,0.074069,0.12506,-0.027987,0.02301,0.15054,-0.027987,-0.027969,0.074062,-0.078947,-0.10445,-0.002443,-0.002472,-0.1045,-0.078996,-0.028005,0.074033,0.023054,0.023054,-0.02795,-0.12994,-0.078972,0.023029,0.074044,0.048518,0.023005,-0.02798,0.04858,0.099577,-0.002454,-0.027944,-0.02795,0.023054,-0.027998,-0.028018,-0.00251,-0.079008,0.074081,-0.027944,0.048573,0.074069,0.023072,-0.002479,-0.002485,-0.002479,-0.027987,-0.027993,0.12504,0.048543,0.074087,-0.053433,-0.10448,-0.027969,-0.053476,0.048518,0.023005,0.048512,0.074062,-0.053451,-0.053451,0.048585,-0.10446,-0.02798,-0.053488,0.048536,0.048518,-0.027998,0.048531,-0.002436,0.02309,-0.078941,-0.078984,-0.002485,-0.13,0.074033,0.099521,-0.002491,0.023047,-0.002461,0.048598,0.099588,0.023035,0.048512,0.023023,-0.002485,-0.027974,-0.181,-0.027962,0.023047,-0.05347,-0.027944,0.023065,-0.027969,-0.027969,0.074013,0.074002,-0.027987,-0.027969,-0.12998,-0.02795,0.023072,-0.002443,0.048555,-0.002467,-0.053506,-0.028005,0.02301,0.074057,-0.002454,-0.053439,-0.078953,0.023047,0.048518,-0.1045,-0.053482,0.048518,0.074038,0.048549,-0.15547,-0.053464,0.15059,0.12509,-0.027969,-0.053506,0.02301,0.074038,-0.053488,0.048531,-0.002454,0.04858,-0.002443,-0.027974,0.048536,-0.15551,-0.002497,0.023023,0.048561,0.048543,0.074051,-0.053446,-0.002443,0.023041,-0.027974,-0.002467,0.048512,0.074026,0.099546,0.074057,-0.05347,-0.053439,-0.053439,-0.10449,0.074038,0.099546,-0.10449,-0.13002,0.074033,0.099552,0.023072,0.048561,-0.002461,-0.002443,-0.027969,-0.002497,-0.053482,-0.078984,-0.07899,0.048518,0.17607,0.023078,-0.027931,-0.078977,0.023035,-0.078977,0.07402,-0.002497,-0.053476,-0.027962,0.099552,-0.002436,0.048585,-0.027969,-0.053495,0.023023,0.048536,0.074013,-0.053482,-0.078959,-0.053451,-0.078959,0.023059,0.048567,-0.027969,-0.10452,-0.028011,0.048525,-0.002467,-0.078959,0.048561,-0.002443,-0.002454,-0.027969,0.074038,-0.053476,-0.10448,-0.053488,-0.053495,0.048525,-0.027956,-0.002436,0.1251,-0.027962,-0.027998,-0.027998,0.099546,-0.002479,-0.079002,0.12505,0.048549,-0.002436,0.074087,-0.027956,-0.078996,0.048531,-0.027987,0.048531,-0.12999,-0.027962,0.048549,0.048573,-0.00243,-0.027969,0.074033,-0.002479,-0.1045,0.099521,0.12503,0.074062,-0.078959,0.023054,-0.00243,-0.078947,0.023035,-0.053513,-0.053495,-0.053488,-0.10449,0.023035,0.099552,0.12509,-0.027925,-0.05347,-0.078996,-0.027993,0.12504,-0.07899,-0.053482,-0.027969,0.12509,-0.027938,0.023072,-0.027969,-0.002485,0.074026,-0.053482,-0.053506,0.12504,-0.027969,-0.027944,-0.078953,-0.002443,-0.027969,0.048536,-0.002461,-0.053495,-0.028029,0.048525,-0.02795,0.023078,-0.002443,-0.027944,-0.027969,0.023047,-0.002485,-0.002497,0.048506,0.023023,0.023041,-0.00243,-0.053433,-0.053439,-0.15548,0.023041,-0.002491,-0.027993,0.02301,0.023035,-0.053446,-0.027969,-0.002461,0.048567,-0.15548,-0.079002,0.074026,-0.027962,-0.078996,-0.002491,0.048536,0.099564,0.099552,-0.027944,-0.00243,-0.053488,-0.1045,-0.078977,-0.18102,-0.002479,0.074062,0.048555,0.074051,0.048561,0.09957,-0.027962,-0.027993,-0.027998,-0.07899,-0.05347,-0.027969,0.023041,0.074081,-0.053439,-0.10446,0.074044,-0.028005,-0.13003,0.02301,-0.027969,-0.10447,-0.12997,-0.02795,0.12508,0.099577,-0.18101,-0.10452,0.15054,0.099534,-0.002448,0.023054,-0.027969,-0.078977,-0.078959,0.023059,0.048549,-0.027987,-0.079014,0.048512,0.048543,-0.002461,0.048555,-0.15547,0.023072,-0.027944,-0.002454,0.048531,0.074013,0.048506,0.048531,0.023054,-0.078959,-0.053439,0.048561,0.048555,0.023017,-0.25753,-0.078984,-0.078996,0.099534,0.17606,-0.078947,-0.078941,-0.002418,-0.078959,-0.0535,-0.053506,0.09951,0.099521,0.09954,-0.002448,-0.053439,0.023054,0.023059,-0.027969,-0.053476,-0.13,0.023029,-0.027993,-0.10452,0.023035,0.048555,-0.02795,-0.053421,-0.002443,-0.027987,-0.027993,0.12504,0.074038,0.023041,0.023035,-0.053464,-0.053464,-0.10446,0.048549,0.074051,-0.053476,-0.13,0.023017,-0.02798,0.023035,0.17609,0.099577,0.048561,0.023041,0.023035,-0.002479,-0.002467,-0.13001,-0.13001,-0.002472,0.023047,-0.027925,-0.027925,-0.05347,0.09954,0.023023,0.12504,-0.002485,-0.027974,-0.02798,0.12506,-0.002436,-0.18096,-0.10445,-0.002479,0.15053,0.15054,-0.027987,-0.13002,0.048549,-0.002448,-0.078947,-0.053446,0.12507,0.048531,0.023029,-0.10451,-0.02798,-0.002472,0.12508,0.048543,-0.078972,0.048598,0.099577,0.048518,-0.027974,-0.078984,-0.002485,0.15055,0.12507,-0.12999,-0.28302,0.15059,0.15059,0.023047,-0.15551,-0.0535,0.074044,-0.078977,-0.078972,-0.002485,-0.002443,0.074057,0.074087,0.048555,-0.027987,-0.002503,-0.028011,-0.002479,0.023047,0.048573,-0.12996,-0.053439,-0.078972,0.02301,0.099528,0.048531,0.023023,0.023035,-0.002467,0.023059,-0.18098,-0.02795,0.099559,0.023017,0.074038,0.048525,0.048525,-0.02798,-0.002479,-0.027944,0.04858,-0.078941,-0.181,0.074044,0.023029,0.099515,0.048506,-0.02798,-0.027962,-0.10446,-0.00243,0.023078,0.048543,-0.027987,-0.027987,-0.10449,-0.027998,-0.002503,0.023017,0.048561,0.074087,-0.15545,-0.002467,0.048525,0.074026,0.074038,-0.15551,-0.053488,0.023035,0.12508,-0.002443,0.099588,-0.027944,-0.027974,-0.002491,-0.079008,-0.027987,0.074051,0.023035,-0.027962,0.023065,-0.078947,0.023041,-0.027998,-0.078996,0.074038,-0.07899,-0.15551,0.074038,0.074069,0.099583,-0.10444,-0.053439,-0.027969,0.099515,0.023023,0.023029,-0.12999,0.023023,-0.02795,-0.078953,-0.12998,-0.053458,-0.027962,-0.002485,0.023017,-0.002479,-0.13001,-0.053482,-0.002479,0.048585,0.023065,0.12506,0.12507,-0.002472,-0.10451,-0.13001,-0.05347,0.048543,-0.027974,0.074062,0.15059,0.048536,0.023035,-0.10449,-0.07899,-0.002503,-0.002491,0.048543,-0.027944,-0.10446,0.09957,0.048567,-0.027987,0.048518,0.074038,-0.053476,-0.1045,0.023035,0.023059,-0.12997,-0.027956,0.048531,0.099552,-0.027974,-0.002485,0.048512,-0.027974,0.074062,0.099564,0.074057,-0.10445,-0.33401,-0.027969,0.17604,0.099534,-0.002472,-0.078996,0.099552,0.099577,-0.053458,-0.078953,0.048536,0.023029,-0.1555,-0.1555,-0.002491,-0.02798,0.048549,0.048561,0.04858,0.099601,-0.12999,-0.053519,0.099534,0.023041,-0.053495,0.023035,-0.10449,-0.002454,0.023072,0.074087,-0.053439,-0.002472,0.074013,-0.028011,0.074038,-0.10449,-0.078966,-0.053476,0.074069,0.04858,0.074075,-0.23202,-0.027998,0.048531,0.09954,0.048555,0.048567,-0.053464,0.048555,0.048567,-0.078966,-0.002467,-0.053506,-0.053495,-0.10453,-0.027987,-0.027956,0.023078,-0.078941,0.15059,0.048536,-0.027993,-0.02798,0.099546,-0.027993,-0.13001,0.074057,-0.002443,-0.10448,-0.053446,0.099577,0.074051,-0.10449,-0.13002,0.048531,-0.053476,-0.05347,-0.002467,0.074075,-0.027944,-0.027969,-0.027993,0.048531,0.15054,0.074038,-0.10448,-0.053464,-0.002461,-0.053458,0.074062,-0.002454,0.048543,0.048531,-0.053488,-0.10451,-0.027993,-0.078984,0.048555,0.12508,0.074087,-0.002436,-0.002472,0.022998,-0.28306,0.048536,0.048561,0.023059,-0.10446,-0.078959,0.12508,0.12509,-0.078977,-0.15553,-0.079014,0.12502,0.099528,-0.002461,-0.10445,-0.027938,-0.00243,0.023059,0.023023,0.048506,-0.028011,0.02301,0.023035,0.048567,0.099577,0.023054,-0.002461,-0.002461,0.023041,-0.10449,-0.18101,-0.028018,0.048525,0.074051,0.074069,-0.078953,-0.23199,-0.053464,0.12506,0.12505,-0.002497,-0.10451,0.15056,-0.02798,-0.027956,-0.053458,-0.02792,0.023078,-0.027974,-0.00251,-0.053495,-0.002491,-0.078984,0.048543,0.074062,0.048549,0.023072,-0.078953,-0.002443,0.048543,0.023017,0.048494,-0.10451,0.12506,-0.002436,-0.078953,-0.053451,-0.078977,-0.027969,-0.1045,0.023023,0.048525,-0.002491,-0.002454,-0.053446,-0.002423,-0.053421,-0.10446,-0.002485,0.048518,-0.078996,-0.002472,0.15056,0.099546,-0.13,-0.027962,0.04861,-0.078947,-0.13002,0.023035,0.099546,0.074044,0.074033,-0.078984,-0.027969,-0.027944,-0.002443,-0.053439,-0.027974,-0.053495,-0.053513,0.099534,0.099534,-0.027962,0.048555,-0.053464,-0.10447,-0.027969,0.099564,0.099552,-0.13,-0.02798,-0.002485,-0.053482,0.099559,-0.002448,0.048585,-0.053446,-0.053476,-0.0535,0.15053,0.15054,0.023029,0.074062,-0.002461,0.023047,-0.002448,0.048567,0.048536,-0.13001,-0.002472,-0.002479,-0.18101,0.023041,0.074069,0.023078,0.15061,0.099564,-0.13002,-0.002497,0.07402,0.12504,-0.002472,-0.027944,0.099577,-0.027938,0.048561,-0.078984,0.023017,-0.10451,-0.002491,0.07402,-0.078984,-0.002454,-0.12997,0.023059,-0.002443,0.048555,0.048543,0.07402,-0.027974,0.048536,-0.02798,-0.002485,-0.078984,-0.053458,-0.00243,0.048585,-0.002448,-0.13001,-0.053506,0.099534,0.099559,-0.002467,-0.078972,0.099559,0.023072,-0.10445,-0.053495,0.02301,0.023041,0.023017,-0.027998,-0.002461,-0.053439,-0.002443,-0.002454,0.023054,0.048549,-0.027969,0.048518,-0.028011,-0.079021,-0.15551,0.15059,0.02309,0.023078,0.023047,-0.053488,-0.0535,-0.053482,-0.078996,-0.15552,-0.10449,0.048555,0.023065,0.12509,-0.053446,-0.07899,0.02301,0.07402,-0.027987,-0.10449,0.023054,0.023065,-0.002436,-0.027962,0.048543,0.048555,-0.027974,-0.002479,-0.079008,-0.079008,-0.027969,-0.053451,0.023072,0.023065,0.048543,0.099546,-0.002472,0.023041,0.048531,0.023005,-0.027987,-0.078972,0.074087,0.048567,-0.10447,0.02301,-0.002485,-0.053482,-0.027969,-0.027969,0.048525,-0.18101,-0.12998,0.099608,0.12509,0.023029,-0.002479,-0.12999,-0.002497,0.07402,-0.027987,0.048555,0.048567,-0.053451,0.023059,0.048549,0.023029,-0.15553,-0.002479,-0.027987,0.074038,0.15059,-0.078953,-0.078959,0.023065,-0.002454,-0.053506,0.048525,-0.053482,0.023017,0.048543,-0.053446,0.023065,-0.002436,0.074093,-0.02798,0.023017,-0.10448,-0.002491,0.023023,0.074057,-0.053464,-0.078966,0.048567,-0.078953,-0.002479,0.074013,0.048536,0.048543,-0.02798,-0.15551,0.048585,0.023059,0.074057,0.023065,-0.078977,-0.027987,0.023017,-0.053513,-0.15552,0.048536,0.023065,0.04858,0.048567,-0.078966,0.074038,0.099546,-0.027974,-0.02798,-0.13002,-0.002479,-0.10447,-0.053439,-0.027944,0.074069,0.023035,0.074038,-0.027987,0.048506,0.048512,0.099546,-0.002443,-0.027938,-0.053446,0.074062,0.074033,-0.053495,-0.1045,-0.027962,-0.13,-0.028005,0.12508,0.048567,-0.002418,-0.02795,0.023029,0.099528,-0.002491,-0.02798,-0.002467,-0.027974,-0.027969,0.074075,0.074075,-0.18098,-0.1555,0.099546,0.048536,0.074013,0.074038,0.023059,-0.078947,-0.078972,-0.18098,-0.002423,0.023041,0.022998,-0.002485,0.074044,0.023023,-0.18103,0.074057,0.048585,-0.027944,0.023047,0.074057,-0.07899,-0.053488,0.074008,-0.02798,-0.10447,-0.078984,0.074062,0.17611,0.023059,-0.079008,-0.15554,0.074057,-0.002461,-0.1045,0.12507,-0.02795,-0.002454,0.099564,0.074069,-0.07899,-0.25754,0.023017,0.023035,-0.05347,0.023047,-0.002461,0.048543,-0.078959,0.023072,0.023041,-0.078996,-0.02798,-0.00251,0.023029,-0.002448,0.12507,-0.027962,0.074075,-0.002418,0.023054,-0.15551,-0.079014,0.074008,0.099546,0.15057,-0.02795,-0.002461,0.17611,0.023054,-0.28305,0.048549,0.09954,0.048536,-0.002467,-0.027969,-0.078984,-0.053458,-0.053446,-0.10447,0.074038,-0.053476,-0.13,-0.0535,0.023017,0.074057,0.048543,-0.002454,0.023059,-0.078953,0.023065,-0.027998,0.12503,0.048531,0.048525,-0.027987,-0.027956,-0.027931,-0.078947,-0.002461,-0.002472,-0.002479,-0.053495,-0.027998,0.023017,0.074057,-0.002436,-0.02795,-0.002443,0.048555,0.074038,-0.078996,-0.002467,0.099515,-0.30857,-0.10449,-0.002412,0.099583,0.074069,-0.002454,-0.002467,-0.053476,-0.002479,-0.053506,-0.10453,-0.002467,0.074062,0.048567,-0.10445,-0.027944,-0.027969,-0.027998,0.12504,0.048512,0.023041,-0.002454,0.074069,-0.053439,-0.027931,-0.12998,0.02301,0.12502,0.048518,0.074038,0.099546,-0.002461,0.023065,-0.002461,-0.002418,-0.053439,-0.053476,0.12502,0.023005,0.02301,0.099552,-0.027962,-0.078953,-0.002467,0.074075,-0.002436,-0.027962,0.099546,-0.053519,-0.028018,-0.053488,-0.002443,-0.002467,-0.078972,-0.002436,-0.027931,0.074038,0.074026,0.02301,-0.079002,-0.002467,-0.002472,0.074044,-0.002461,-0.15548,0.0741,0.17609,0.07402,-0.028005,0.048531,-0.053482,-0.078966,-0.078977,0.048549,-0.002423,0.12509,-0.027993,0.023005,-0.078996,0.099552,-0.027987,-0.053506,0.023047,0.048567,-0.002418,-0.002443,-0.002467,0.023017,0.02301,0.074026,-0.05347,0.023047,-0.078972,-0.15548,-0.10446,0.023047,0.15058,-0.002467,-0.10451,-0.053506,0.048512,-0.027969,-0.053446,-0.002418,-0.053433,-0.027962,-0.002472,-0.10451,-0.02798,-0.002485,-0.028005,-0.002485,-0.002454,-0.00243,0.074087,-0.027956,-0.13002,-0.053482,0.074044,0.099534,0.048536,-0.078977,-0.002467,0.09957,0.04858,-0.15548,0.09954,-0.002491,-0.053488,-0.002491,-0.027987,-0.027962,-0.053446,0.023059,0.048561,0.15057,0.023041,-0.002491,0.023023,-0.02798,-0.053482,-0.053495,-0.027956,-0.053439,-0.078959,0.048561,0.074057,-0.027987,-0.0535,0.12504,-0.027969,0.023029,0.023054,-0.00243,-0.027944,-0.027969,-0.027974,0.023023,-0.002491,-0.027993,-0.002479,-0.05347,-0.027944,-0.053482,-0.10449,-0.002443,0.20159,0.023035,0.023029,-0.079014,0.02301,0.048549,0.023072,-0.053458,-0.078953,0.023054,0.074051,-0.053476,-0.1045,-0.10452,0.048512,0.048543,-0.078953,-0.12998,0.074081,0.2016,0.048536,-0.053513,0.023005,-0.002485,0.048543,-0.078966,-0.078977,0.023047,-0.053446,-0.078935,0.074057,0.048512,0.074026,0.17604,0.023023,-0.002485,0.023047,0.023059,-0.10445,-0.02795,-0.078996,-0.053513,0.048536,0.048543,-0.10449,-0.053476,0.074051,0.099559,0.12509,0.04858,-0.15547,-0.10449,-0.002497,-0.00251,-0.027998,-0.002472,0.074062,-0.027938,0.02309,0.12508,-0.078984,-0.18106,0.022998,0.074033,-0.002467,0.023041,-0.002436,-0.027938,-0.053458,0.099577,0.09957,-0.053495,0.099528,-0.053482,-0.053488,-0.027993,0.023059,-0.002443,-0.027944,-0.027931,0.099564,0.099528,-0.002485,-0.078996,0.12504,0.15056,-0.12996,-0.10447,0.023059,0.04858,-0.002467,0.023005,0.074038,-0.078984,-0.053495,-0.053495,0.099552,0.023072,-0.053458,0.023059,-0.002454,-0.10449,-0.053506,0.074044,-0.053482,0.048531,0.09957,-0.002443,-0.053464,0.09957,0.048549,-0.07899,-0.079002,0.048518,0.074038,0.023047,0.023054,-0.078977,-0.283,-0.053451,0.17604,0.15055,0.099546,0.048525,-0.002497,-0.02795,-0.078972,-0.05347,-0.00243,-0.053446,-0.079014,0.02301,0.099552,-0.10449,-0.13001,-0.053488,0.023047,-0.002448,-0.02795,0.048561,0.048549,0.048506,-0.002479,0.023035,-0.1045,0.048536,0.023059,-0.078972,0.074069,-0.027931,-0.078984,0.023017,0.17603,0.048536,-0.07899,-0.12999,-0.027962,-0.053446,0.048585,-0.053439,-0.0535,0.02301,0.099552,0.074038,0.023029,0.074033,0.048555,-0.002436,0.023065,-0.027969,-0.10449,0.023047,0.023029,-0.002497,-0.053495,-0.078972,0.023065,-0.002454,0.023054,-0.027956,-0.027969,0.023023,-0.1045,-0.027993,-0.078996,-0.07899,0.099559,0.12509,0.0741,-0.078947,-0.02798,-0.00251,0.023023,0.023023,-0.10448,-0.078984,0.023047,-0.02795,0.04858,-0.027944,-0.02798,0.099515,-0.002485,-0.027974,-0.002472,-0.15548,-0.053446,-0.002454,0.099577,0.023059,0.074062,0.074038,-0.07899,-0.079002,0.15054,0.023047,-0.027969,-0.078966,0.023059,-0.02795,-0.002448,-0.002467,-0.027987,-0.027993,0.02301,-0.027998,-0.10447,0.023059,0.074087,0.023054,-0.02798,-0.053495,-0.027993,0.07402,0.048555,-0.078959,0.048549,0.023054,-0.027925,0.023065,-0.002485,-0.002479,-0.027987,-0.079008,-0.027969,0.048536,-0.027962,-0.053458,0.048555,0.048567,-0.002461,-0.02798,0.048512,-0.053495,-0.053476,-0.027969,0.023035,0.023059,0.048585,0.099559,0.023029,-0.002467,-0.053495,-0.002497,0.023029,-0.078984,0.023078,-0.002443,-0.053458,0.048567,-0.002448,0.048518,0.07402,-0.053482,-0.027987,-0.10449,-0.053476,0.09957,0.023072,-0.15548,-0.15551,-0.002472,0.099528,-0.002479,0.099546,0.023059,0.048555,-0.02795,0.023054,0.12507,0.023035,-0.002467,-0.027987,-0.1045,-0.15551,-0.13,0.074069,0.09957,0.074062,-0.027944,-0.05347,0.074038,-0.002497,0.074013,0.048543,-0.002448,-0.10445,-0.10447,-0.002448,0.048561,0.048518,0.12504,0.048549,-0.053482,-0.053495,-0.10449,0.074062,-0.053451,-0.078959,-0.053446,0.023054,0.048512,-0.13001,-0.10449,0.023023,0.099528,0.12507,0.023065,-0.12998,-0.02795,0.074044,0.048536,0.048506,0.048518,-0.002461,-0.027969,-0.078977,0.074081,0.074069,-0.002461,-0.027969,-0.13,-0.027987,-0.027998,-0.002467,0.023047,-0.002454,-0.002467,-0.053433,-0.027938,0.023017,0.023017,0.074044,-0.053482,-0.002491,-0.05347,-0.10446,-0.078977,-0.002448,-0.002443,-0.053464,-0.002491,0.099528,0.074026,-0.07899,-0.002467,-0.05347,0.12507,0.074087,-0.10445,0.048543,0.02301,-0.053476,-0.027993,-0.027987,0.023041,-0.027956,-0.12998,0.048561,0.099588,-0.078977,-0.053506,0.099534,-0.002467,-0.10451,-0.13002,-0.053458,0.074087,0.074081,0.20158,0.023047,-0.02798,-0.078996,0.022998,-0.079008,-0.053476,-0.053446,-0.12998,-0.002448,0.048567,0.048549,-0.002485,0.074026,-0.053506,-0.0535,0.099564,0.048573,-0.053458,-0.10445,-0.053458,0.023017,-0.07899,-0.027974,0.023023,0.074038,0.048543,-0.002467,-0.12998,-0.02792,-0.002436,0.023029,-0.028005,-0.1045,-0.027993,-0.053476,0.048561,-0.027956,-0.027969,0.048555,-0.002443,-0.05347,0.048536,0.023017,0.022998,-0.002491,0.023035,0.048561,0.074075,-0.10444,-0.053446,-0.027969,0.099528,-0.079021,0.15055,-0.027969,-0.078996,-0.05347,0.099559,0.099583,-0.078953,-0.05347,-0.053506,0.023005,0.02301,-0.002461,-0.12998,-0.078984,0.20157,0.1251,-0.002423,-0.078972,0.048531,-0.079002,0.12503,-0.002485,-0.002461,-0.027969,-0.027969,0.048567,0.023047,-0.05347,-0.07899,-0.053464,-0.15551,-0.053495,-0.002485,0.12505,0.048567,0.023084,-0.027938,0.023041,-0.028005,0.07402,0.12504,0.023041,-0.027956,0.023047,-0.05347,-0.027956,-0.078972,-0.02798,-0.002485,-0.002472,0.023017,0.023017,-0.002461,-0.027938,0.074075,0.15059,-0.12998,0.09954,0.099552,0.048543,-0.10452,-0.053476,-0.15549,0.023059,-0.027969,0.099577,0.1506,-0.078972,-0.079002,0.023017,0.048531,-0.12999,-0.181,0.048549,0.09957,-0.002436,-0.027969,0.074038,-0.002472,-0.15551,-0.027998,-0.002461,0.048555,0.074051,0.074075,0.074087,-0.078947,-0.027974,-0.0535,-0.15553,0.048531,0.023035,-0.002467,-0.027969,0.099559,0.2271,0.074087,-0.05347,-0.053495,0.048518,0.023023,-0.027969,-0.002461,-0.10448,0.023047,0.099577,-0.10445,-0.027969,0.07402,-0.027993,-0.1045,-0.1045,-0.002485,0.023047,0.04858,-0.078947,-0.2065,0.099546,0.12506,-0.002479,0.022998,-0.002491,-0.002467,-0.002436,0.048567,0.023072,-0.078972,-0.053495,-0.027993,-0.002472,-0.053488,0.023035,0.048536,-0.027969,-0.053458,0.099601,-0.027931,-0.02795,-0.053482,-0.10451,-0.0535,-0.028005,-0.02798,0.048555,-0.053446,0.1251,0.12508,0.023017,0.048512,0.15055,0.023023,-0.027969,-0.078966,0.023054,-0.027969,0.074075,-0.002454,-0.027956,0.023035,-0.027987,-0.028005,0.048518,-0.002467,-0.027956,-0.027956,0.074087,0.074051,-0.002467,-0.10449,-0.02798,-0.053506,-0.13001,-0.05347,0.099577,-0.027938,-0.18098,-0.078977,0.17607,0.048543
-0.02798,-0.15552,0.048561,0.099595,0.099583,0.074057,-0.1045,-0.027974,0.048531,-0.027987,-0.027993,0.048531,-0.053464,-0.078935,-0.02792,-0.002448,0.048518,-0.10452,-0.002485,-0.053488,0.048543,0.023041,-0.053464,-0.12998,-0.078941,-0.002443,0.099552,0.022998,0.048536,0.023035,-0.053495,-0.053488,0.023047,0.048573,-0.10444,-0.15548,-0.10449,0.023017,0.02301,0.074026,-0.027974,-0.027969,0.048555,-0.053464,0.074081,0.074075,-0.05347,-0.079008,0.074026,0.023023,-0.05347,0.074038,-0.10449,-0.15549,0.0741,0.12509,0.048536,0.074033,-0.002472,-0.079014,-0.13004,-0.027969,0.048585,0.023078,0.04858,0.17609,0.048531,-0.13,-0.053495,-0.1045,0.074026,0.048536,-0.002443,0.074075,-0.027938,-0.078966,-0.1555,-0.0535,-0.027974,0.074033,0.048518,0.048525,-0.027969,0.048561,0.04858,0.074075,-0.10447,0.074038,0.02301,-0.028005,-0.002503,0.074044,0.12506,0.048573,0.074087,0.074075,-0.12999,-0.23203,-0.1045,-0.02798,-0.027993,-0.02798,-0.027969,-0.002467,-0.053464,-0.027969,-0.002472,0.048525,0.15055,0.099546,-0.002467,-0.12998,-0.10446,-0.15547,-0.078941,0.023059,-0.002472,-0.13002,-0.079026,0.099521,-0.027993,0.15056,0.099552,-0.02795,-0.027944,0.048585,0.074062,0.074038,-0.13,-0.15551,-0.10449,-0.002472,-0.05347,0.15057,-0.00243,-0.002443,0.048555,0.023029,-0.002472,-0.078996,0.023023,-0.027974,0.023047,0.048555,-0.002454,0.048555,0.023023,-0.053495,0.074033,-0.002485,-0.002467,-0.053476,-0.10447,0.023054,0.12508,0.023041,-0.07899,-0.07899,-0.053476,-0.053482,0.023023,0.048549,-0.002461,0.023047,0.12508,-0.002436,-0.027962,-0.12999,-0.10449,0.023017,-0.027987,0.023035,0.048536,-0.027962,-0.027944,-0.027938,-0.078972,-0.05347,0.048531,0.022992,0.074033,0.023023,0.074033,0.048561,0.099588,-0.027938,0.074051,-0.10449,-0.181,0.02301,0.074013,-0.12999,-0.002461,-0.027956,-0.053446,0.099588,0.048555,0.023023,-0.0535,-0.079021,0.12505,0.074033,0.023059,-0.027944,-0.053439,-0.12996,-0.027974,-0.027987,0.048518,0.099521,0.074033,-0.10446,-0.05347,-0.027974,-0.002461,-0.002448,-0.078977,0.048536,-0.053495,-0.0535,0.074033,0.048549,-0.12996,-0.053476,0.074081,0.22707,-0.02795,-0.10452,0.099515,0.023023,-0.30851,-0.078984,-0.002454,0.3801,-0.12996,-0.027944,-0.078972,-0.13,-0.027987,-0.027998,-0.002479,-0.05347,0.023047,-0.002467,0.12508,-0.078947,-0.078977,-0.027998,0.048531,-0.002461,-0.002485,-0.053482,0.074069,-0.027944,-0.053451,0.074081,-0.027962,-0.23205,0.074026,-0.078996,0.099552,-0.078966,-0.002467,0.099564,0.099588,-0.053451,-0.02798,0.074013,0.09954,-0.13002,-0.10452,0.048543,0.048555,-0.053451,0.04858,0.074075,-0.078977,-0.13001,0.074002,0.074013,-0.002472,-0.053476,0.023065,-0.078972,-0.027931,-0.002448,0.099546,0.023035,0.048543,-0.002491,-0.053476,-0.002479,-0.002454,-0.027944,-0.053433,-0.10446,0.048536,0.099528,-0.0535,-0.13001,-0.05347,-0.027969,0.20158,0.09957,-0.18097,0.023065,-0.027974,-0.002479,-0.053482,0.12504,-0.027993,0.023035,0.12507,0.048555,-0.002454,-0.053433,-0.10449,-0.15551,-0.053506,0.099534,0.12504,0.023035,0.048555,-0.027944,-0.10445,-0.10447,0.15056,0.12504,-0.002479,0.023017,-0.027993,0.048555,-0.12998,0.048543,0.048567,0.04858,-0.10446,-0.028011,0.074013,0.074026,-0.053464,-0.053476,-0.027974,0.074062,0.1251,-0.002436,-0.078972,-0.10452,-0.1045,0.074026,0.02301,0.12505,0.023065,-0.002443,-0.027938,0.048561,0.048531,-0.002491,-0.13001,-0.15552,0.023035,0.023054,-0.027944,0.023054,0.048585,-0.002467,0.023017,0.099521,-0.027987,0.048543,-0.002485,-0.02798,-0.002454,0.099577,-0.078941,-0.002448,-0.078984,0.074008,0.022998,0.02301,-0.13,-0.002448,-0.078947,-0.002443,0.074051,0.023054,-0.002461,-0.053482,-0.053506,0.12502,0.023029,0.023047,-0.053446,-0.078959,-0.053446,0.023047,0.048543,0.048531,-0.053464,-0.10451,0.023029,0.023017,0.023035,-0.002448,-0.002436,0.099583,-0.10448,-0.10449,-0.028005,0.099521,-0.053495,0.12507,-0.002448,-0.15548,-0.053446,-0.002443,0.099546,0.099521,0.048518,-0.027993,-0.027962,-0.002472,0.048549,-0.027962,-0.00243,-0.002443,-0.002454,-0.027993,-0.0535,0.048518,0.02301,0.099546,0.074062,0.074075,0.023078,0.099577,0.048549,-0.053495,-0.10449,-0.002491,-0.002497,0.023035,-0.002461,0.074069,-0.078928,-0.10445,-0.078984,-0.002497,0.048518,0.07402,0.048525,0.023023,-0.027962,0.048573,-0.02792,-0.02792,-0.027987,-0.00251,0.074026,0.099534,-0.05347,-0.10447,-0.053464,-0.05347,-0.027962,0.048555,0.023035,-0.002479,-0.002461,-0.078996,0.048536,-0.002479,-0.078972,-0.002454,-0.027944,0.048573,0.074062,-0.078996,-0.02798,-0.002485,0.02301,-0.02798,-0.053476,-0.002443,-0.002418,-0.23199,-0.002479,0.12504,0.12503,-0.027987,-0.078984,0.023029,0.023065,-0.053439,0.074075,0.074062,-0.002461,-0.002497,0.074013,-0.002485,-0.10451,-0.027969,-0.10447,-0.12998,-0.002443,0.099583,-0.10447,0.023029,-0.053495,0.074013,-0.053513,-0.027974,-0.027944,0.023078,0.023084,-0.002448,0.023029,0.099528,0.12503,0.074013,0.023023,-0.053476,-0.002436,-0.10445,-0.10444,-0.053446,0.099552,0.099546,-0.002467,-0.002503,-0.0535,-0.027987,0.099564,0.023059,-0.027925,-0.002448,0.074038,0.023023,-0.002479,-0.002472,-0.002479,-0.15549,-0.027969,0.074062,0.048585,-0.10447,0.023047,-0.07899,-0.15551,0.023005,-0.07899,0.023035,0.023035,0.074057,-0.053433,-0.10446,-0.027969,0.15054,-0.10452,0.022998,0.099552,0.023047,-0.027962,0.099583,-0.078947,-0.15547,0.023023,0.023029,0.048536,-0.053495,-0.002497,0.023029,-0.027956,0.023078,-0.002418,0.074057,-0.027974,-0.027998,-0.053476,-0.07899,-0.002503,0.023029,-0.002461,-0.10446,-0.002423,0.048585,0.074051,-0.027987,-0.027998,-0.002491,0.12504,0.12504,0.099577,0.023072,-0.10444,-0.15546,-0.002472,0.023005,0.048512,0.07402,0.12505,0.048555,-0.027974,-0.002467,0.074087,0.023078,-0.027962,0.048525,-0.053513,-0.002491,0.023041,0.023041,0.023054,-0.002461,-0.053446,0.04858,-0.053464,0.02301,0.023023,0.074026,-0.10448,-0.13,-0.002461,0.15057,0.023078,-0.053458,0.074033,0.048536,-0.027974,-0.1045,-0.053506,0.074026,-0.027938,-0.02795,-0.053458,0.023084,-0.027969,0.023005,0.099534,0.02301,-0.10451,0.023035,-0.053458,-0.027944,0.099588,-0.027944,-0.027974,-0.10449,0.023029,0.02301,0.12504,0.048561,-0.02795,0.09957,0.074069,-0.078966,-0.12998,-0.02798,-0.028011,-0.0535,-0.027969,-0.027974,-0.027956,-0.027974,0.048573,0.04858,0.023035,-0.028005,-0.002485,0.023029,-0.10449,-0.053482,0.12506,-0.02795,-0.027913,-0.053451,-0.053495,0.02301,0.074026,0.023029,0.048512,0.09954,-0.078966,-0.10445,-0.078923,0.074069,0.048536,0.022998,0.02301,-0.02798,-0.002479,-0.027987,-0.053476,-0.10446,0.048592,0.023072,-0.053488,0.022998,-0.07899,-0.002467,0.099552,-0.053488,-0.053488,0.074087,0.1251,0.048567,-0.002472,-0.053495,0.048549,-0.028005,-0.002497,0.023054,-0.027956,-0.002448,-0.002454,-0.027956,0.074062,0.074026,0.048512,-0.07899,-0.027969,-0.002461,0.023035,-0.027969,0.023059,-0.027925,-0.002461,-0.002491,-0.053506,0.02301,-0.027969,0.048543,-0.053482,0.023054,-0.002412,-0.002448,-0.027969,0.048531,-0.05347,-0.053488,-0.028011,0.074038,0.099577,-0.053458,-0.10447,-0.027931,-0.10447,0.074013,0.048525,0.048531,0.048525,0.023041,0.074062,-0.002467,-0.002443,0.074075,-0.053476,-0.002497,0.074044,-0.078996,-0.1045,0.074044,0.04858,-0.027938,-0.10445,0.09957,0.048543,-0.053495,-0.053506,0.15052,0.048525,-0.15549,0.023047,0.074044,0.099564,0.023072,-0.027962,-0.18102,-0.15551,-0.002485,0.09954,0.15057,0.048555,0.048573,0.074069,-0.053451,-0.02798,-0.002497,0.023005,-0.028005,-0.10449,0.023047,0.099577,0.074075,0.023065,-0.053451,-0.12999,-0.10451,0.048512,0.02301,0.074038,0.023047,-0.027944,-0.078953,-0.053464,-0.053458,0.074038,-0.027993,0.074044,-0.10449,-0.1045,0.048531,-0.002461,0.074069,-0.10445,-0.20649,0.15057,0.15055,-0.027987,-0.028005,-0.028011,0.099546,0.023065,0.023084,-0.10444,-0.02795,-0.078996,0.099534,0.074038,0.074033,0.048536,-0.053476,-0.15549,-0.002461,-0.078947,-0.053451,-0.002461,0.12503,-0.028005,-0.079014,0.023023,-0.002448,-0.002436,-0.02795,0.12508,0.048555,-0.002479,-0.027993,-0.078996,-0.002479,-0.002461,-0.027969,0.048567,0.048573,0.048585,-0.053446,-0.02795,0.15056,-0.078996,-0.028005,0.099521,0.048518,0.099559,0.023054,-0.10443,-0.002443,-0.053464,-0.028005,0.048512,0.074026,0.023029,-0.027956,-0.002423,-0.002443,-0.10447,-0.027969,-0.002467,0.09954,0.023017,0.074013,0.048525,-0.053458,-0.053476,0.048561,0.023059,0.023072,-0.12998,0.02301,-0.002503,0.099528,0.023029,0.023041,-0.002436,-0.053446,-0.053433,-0.10445,-0.15548,-0.002491,-0.10451,-0.13002,-0.002497,0.074038,0.12506,0.048555,0.023072,-0.027944,-0.15548,-0.002461,0.023035,-0.002491,-0.18103,0.074044,0.099564,0.1506,0.099588,-0.078947,-0.12998,0.048531,-0.0535,-0.10451,0.02301,0.048518,0.099564,-0.10447,-0.002443,0.048585,-0.053458,0.048525,0.048512,-0.079033,0.023029,0.099564,0.048567,-0.027931,0.074081,0.099583,-0.002454,0.074038,-0.079008,-0.10452,-0.18102,-0.079002,-0.002467,0.023072,0.023065,0.074081,0.12507,-0.078996,-0.053488,-0.053506,-0.027993,-0.027969,-0.002454,0.048561,0.12509,0.074087,-0.078972,-0.078996,-0.079008,-0.053513,0.023023,0.074033,0.048561,0.09957,0.048567,0.048573,-0.07899,-0.002485,0.074026,-0.002485,-0.079008,0.099564,0.12509,-0.027944,-0.027938,0.048555,-0.078984,0.12504,0.023005,-0.002491,0.048536,-0.002461,0.074057,0.04858,0.074075,0.074069,-0.002472,-0.002503,-0.1045,-0.10451,0.048543,0.048549,-0.078959,-0.002454,-0.027956,-0.002454,0.023023,0.023017,-0.002491,-0.027993,-0.078972,0.023047,-0.027969,-0.002461,0.023059,0.074075,0.048567,0.023023,-0.053488,0.02301,-0.053513,-0.027969,-0.053451,-0.002454,0.12507,0.074069,0.023054,0.02301,-0.15553,-0.13004,0.074057,0.17608,0.048561,0.12506,-0.002461,0.023072,-0.15548,0.023023,0.099528,-0.027987,-0.12999,-0.002448,-0.002461,0.048561,-0.002423,0.099577,-0.027993,0.048512,-0.078996,0.048525,-0.07899,0.023029,0.048549,0.048555,0.099588,0.048573,0.048549,-0.1045,-0.002479,-0.027993,-0.027987,-0.12999,-0.053476,-0.002454,-0.027956,-0.078959,0.074038,0.048525,-0.053495,-0.078977,0.048536,0.048555,0.074069,-0.053446,-0.002436,-0.027956,-0.12999,-0.002472,0.09954,0.048525,-0.078977,-0.02798,0.099552,0.048549,-0.053433,-0.002423,-0.15548,0.12505,-0.028005,0.09951,0.074026,-0.027962,-0.027944,-0.027962,0.023047,-0.002443,0.074057,0.099546,-0.078984,-0.078984,-0.0535,0.15054,0.074069,0.12508,-0.002436,-0.053446,-0.10449,0.023029,0.02301,0.048531,0.048543,-0.002454,-0.027974,0.048555,-0.002443,-0.053439,0.048549,0.099521,-0.028005,0.048512,0.048518,0.048555,0.074062,0.048561,-0.027938,-0.078947,-0.078984,0.074013,0.15054,-0.079002,-0.0535,0.074062,-0.053451,-0.027938,-0.078953,-0.002448,0.099546,0.048518,-0.002479,0.048536,-0.053476,-0.053464,-0.027962,-0.05347,-0.002454,-0.078972,0.023035,0.074044,-0.07899,-0.00251,0.023029,0.023059,0.12508,-0.078972,-0.053427,0.023078,-0.078972,-0.07899,0.022998,0.15052,0.048531,0.023041,-0.078959,-0.10447,0.074075,0.074087,-0.027944,0.12505,-0.0535,-0.002497,-0.027987,-0.002467,0.074069,0.048536,-0.027938,0.048592,0.074051,0.048531,-0.079026,-0.002503,0.048518,0.023054,-0.002436,0.048561,-0.027938,-0.078966,-0.002479,0.22705,0.074013,0.074038,-0.027969,0.048549,-0.053458,0.09957,0.048549,-0.002436,-0.002467,-0.002479,-0.002472,-0.027993,0.048518,-0.078984,0.048555,0.074062,0.023059,0.048573,-0.053458,0.048549,-0.07899,-0.027993,0.074038,-0.053476,-0.078977,0.074044,0.04858,-0.053439,-0.053488,0.12503,0.12505,-0.078996,-0.10451,-0.12999,-0.002454,-0.002436,-0.15546,-0.078959,0.12507,0.12505,-0.053495,0.048494,0.099515,-0.12998,-0.15548,0.048555,0.099583,0.023084,-0.002472,0.099521,-0.002503,-0.1045,-0.1045,-0.027969,0.12507,0.12509,0.023078,0.023059,0.023035,0.12505,-0.10449,-0.10452,-0.002497,0.12507,0.048543,0.12506,0.074069,-0.02795,-0.027962,-0.002467,-0.02798,-0.002491,-0.053506,0.023059,-0.027956,-0.027974,-0.053446,0.048585,-0.002461,0.099521,-0.027987,0.099521,0.074026,0.048543,-0.027962,-0.12998,0.074069,0.048573,-0.1045,0.12504,0.074038,-0.02798,-0.1045,-0.079002,-0.053451,0.074087,0.12509,0.023047,0.023054,0.048525,-0.079008,-0.053506,-0.0535,-0.053476,0.074075,-0.002443,0.023059,-0.002436,-0.002461,0.023017,0.02301,0.02301,-0.053506,0.023029,0.048561,-0.027938,-0.027925,-0.053458,-0.053476,0.048518,-0.028005,0.022998,0.074013,0.048543,0.023054,0.074069,0.023084,0.023065,-0.002461,-0.079008,-0.002497,-0.1045,-0.027993,-0.05347,-0.002443,-0.053464,0.023065,0.04858,0.023047,0.15056,-0.027993,0.074013,-0.079014,-0.027969,-0.002436,0.15059,0.048561,-0.12999,-0.05347,0.023029,-0.002479,0.023029,-0.053488,-0.027969,0.023054,-0.002448,-0.12996,-0.053458,-0.10449,0.099521,0.048518,-0.002491,-0.027987,0.074044,-0.027962,-0.002436,-0.002418,0.04858,-0.078966,-0.02798,-0.053506,0.12502,0.048525,-0.002472,-0.02795,0.048561,-0.02792,-0.10447,-0.1555,0.17603,-0.02798,-0.078996,-0.027969,-0.002461,-0.027974,-0.027969,0.023065,-0.002436,0.023029,0.099528,0.048531,-0.027987,-0.027987,0.048531,-0.027944,-0.12996,-0.12996,-0.027938,-0.002448,0.048543,-0.10452,0.022998,0.15056,-0.002472,-0.002472,0.099577,-0.002423,-0.078947,0.023047,0.048536,-0.13,-0.13004,0.048512,-0.078972,-0.002467,0.048561,0.023078,-0.078966,-0.053464,0.074051,-0.002497,-0.002503,0.074044,-0.053488,0.023054,-0.027938,-0.002436,-0.027956,-0.02795,-0.078996,0.074026,-0.07899,-0.079002,0.048536,-0.002454,0.023041,0.074081,-0.12996,-0.027987,0.22705,-0.053488,-0.20652,-0.079002,-0.027962,-0.02795,-0.002461,-0.027944,0.099583,0.023023,-0.027987,-0.002472,0.022998,-0.002479,0.023054,-0.002448,0.023054,-0.053427,0.048561,-0.027956,0.15057,-0.027987,0.023005,-0.078977,0.048531,-0.078977,-0.15547,0.048561,0.12509,0.074075,0.048525,-0.0535,-0.027993,-0.13,-0.027974,-0.027974,0.048555,0.1251,0.099552,-0.027974,0.048549,-0.1045,0.022998,-0.078972,-0.05347,0.023041,-0.002443,-0.002436,0.048555,0.074033,0.099546,-0.07899,-0.079008,0.048518,0.074051,-0.10447,-0.053458,0.048573,-0.002436,-0.10447,-0.002491,-0.028005,-0.002479,-0.07899,-0.027974,0.15056,-0.027944,-0.053427,0.048567,0.048531,0.048525,-0.02798,-0.13,0.023005,0.048543,0.023059,-0.053451,-0.078953,0.074069,-0.002467,-0.02798,-0.053495,0.12503,0.023035,-0.12999,0.023054,0.12507,0.099588,-0.10445,-0.10449,-0.053519,0.023023,-0.18101,-0.20652,-0.078996,0.048555,0.074081,-0.002436,-0.002454,-0.10449,0.048543,-0.002479,0.022998,-0.002485,-0.053458,-0.002461,0.099552,-0.027931,-0.053427,0.074057,-0.053513,-0.07899,0.023023,0.12504,-0.078984,-0.027944,-0.05347,-0.02795,0.099601,0.074038,0.074033,-0.053476,0.048512,0.048525,0.048549,-0.002467,-0.02795,-0.053427,-0.053433,-0.027974,-0.053488,0.048525,0.048494,-0.027998,-0.002443,-0.078959,-0.027969,0.048592,-0.05347,0.074038,-0.053482,-0.20653,0.074044,-0.053488,0.099546,0.12507,-0.027969,0.048567,-0.053433,-0.078984,-0.002503,0.023023,-0.002497,0.074008,0.12507,0.023059,-0.12995,-0.027944,-0.02795,-0.027956,-0.07899,-0.027987,0.074033,0.074013,-0.053495,0.074069,-0.002436,-0.12994,-0.053464,0.099546,0.12504,-0.078984,-0.078996,0.023017,0.048512,-0.027969,-0.02795,-0.002423,0.074081,-0.027962,0.099528,-0.002485,-0.027987,0.023041,-0.053464,-0.053476,0.023035,0.023047,-0.002436,0.074069,-0.02798,-0.18102,0.12504,-0.002485,-0.10449,-0.10448,0.074051,0.048567,0.048567,0.023059,0.074051,-0.12999,0.023017,-0.053506,0.048531,-0.027938,-0.078947,-0.053451,0.023059,-0.002461,-0.002472,-0.027993,-0.002503,0.12503,0.074044,-0.12997,0.048549,0.099595,-0.053433,-0.053482,0.25256,-0.078984,-0.002503,0.023023,-0.02795,-0.10447,0.12506,0.15058,0.12509,-0.053458,-0.13001,-0.002485,-0.027974,-0.053495,0.023023,-0.05347,-0.002436,0.023065,0.048561,0.074057,0.12505,-0.027987,-0.028018,-0.053488,-0.027962,-0.15547,-0.02795,-0.027944,-0.078966,0.099546,0.17604,0.074044,-0.10449,-0.1045,-0.1045,0.099552,0.099583,-0.10444,0.074062,0.074062,0.09954,-0.00251,-0.079008,-0.053476,-0.078966,-0.10447,-0.02795,0.074075,-0.002436,-0.002467,0.099521,0.12505,-0.053482,-0.053488,-0.05347,0.048567,0.023054,0.12509,0.074081,-0.12998,0.074013,0.12506,-0.10449,-0.028005,0.12505,0.048555,-0.027969,0.048585,-0.027938,-0.002461,0.023029,-0.079014,-0.002497,-0.027969,-0.078996,0.048549,0.048573,-0.002454,0.099577,-0.078959,0.09954,-0.079026,0.023023,-0.053476,-0.053476,0.048555,0.048561,0.074069,0.099559,0.048555,-0.13,-0.028005,-0.053488,-0.027974,-0.078972,-0.027969,0.074062,0.074075,0.023072,-0.053482,0.20155,0.023023,-0.027974,-0.027987,-0.053482,0.023047,-0.002436,0.023065,-0.002454,0.048549,-0.053488,0.023005,0.074013,0.023035,-0.053464,0.023047,-0.027969,-0.02795,0.023084,-0.027969,0.099521,0.12503,-0.002503,-0.0535,-0.053476,-0.20647,-0.027938,0.023072,0.048555,0.074033,0.023023,-0.078996,-0.053506,-0.027974,-0.002443,0.023059,0.074038,0.048573,0.023084,0.074069,0.15054,-0.15553,-0.10452,0.048549,0.048536,-0.002467,-0.078972,-0.002436,0.023084,0.074051,-0.053495,-0.02798,-0.027993,-0.053506,-0.027969,-0.027944,-0.027956,-0.078959,0.048561,-0.053439,0.023035,-0.028011,0.099521,-0.027987,-0.027974,0.22707,0.023065,-0.053439,-0.078966,-0.05347,0.048536,-0.002497,-0.053495,-0.078984,-0.079002,0.048543,0.023065,0.048567,-0.02795,0.023059,0.099552,-0.027993,-0.027998,-0.13,-0.18101,0.048549,-0.027931,-0.10445,0.12507,0.09957,-0.13,0.048525,-0.002491,0.02301,-0.027987,0.099577,-0.053458,-0.078959,0.048585,-0.18098,0.023023,-0.0535,0.048525,0.023029,-0.13001,-0.053482,0.17609,0.074093,-0.002448,-0.15549,-0.053476,-0.0535,0.048512,0.023023,-0.027987,-0.002467,-0.002436,-0.053427,-0.053439,-0.078972,0.07402,-0.07899,-0.053506,-0.002491,0.074044,-0.002448,0.048567,-0.078972,0.048561,-0.002454,-0.10452,0.048512,0.099534,-0.078996,-0.053488,0.099552,-0.002436,-0.15546,0.099577,0.074044,0.17607,-0.13001,0.048518,0.099528,-0.10448,-0.078984,-0.002461,0.023072,-0.053433,-0.027969,0.0485,-0.002485,-0.053495,-0.15552,-0.078977,-0.053446,-0.027962,-0.10448,0.099577,0.12507,0.074051,-0.053513,0.02301,0.048536,-0.078977,0.023047,-0.10446,-0.00243,0.074075,0.048531,-0.028005,-0.027974,-0.002479,-0.002503,-0.05347,-0.027962,-0.002461,-0.02792,-0.002443,0.023047,0.099552,-0.053513,-0.07899,-0.002491,-0.02798,0.048549,-0.053476,-0.027925,-0.053439,-0.002467,0.023041,-0.002485,-0.079014,0.023029,-0.002467,-0.027969,-0.027944,-0.078941,0.023065,0.12508,0.15055,0.074013,0.09954,-0.0535,0.12505,-0.002448,-0.181,0.17609,0.023096,-0.078972,0.074026,0.074038,0.023005,-0.10452,-0.002479,0.048549,0.074051,-0.02795,-0.027944,0.023065,0.048536,-0.002503,-0.13001,-0.10448,0.023041,0.099546,0.048555,0.023078,-0.05347,0.023054,-0.002479,-0.079008,-0.053513,-0.02798,0.023047,0.099552,-0.027969,-0.10445,-0.053427,-0.078977,0.12503,-0.053495,-0.002472,0.023023,0.048525,0.023035,-0.027956,-0.002418,0.023065,0.023035,-0.002485,0.09954,-0.13001,0.074008,-0.027974,-0.053451,-0.002443,0.074069,0.074093,-0.10446,0.12502,-0.02798,-0.07899,0.022998,-0.13001,-0.002448,-0.053451,-0.078959,0.099583,0.099583,-0.027993,-0.10451,-0.002497,0.17605,-0.002461,-0.002461,0.074062,-0.053433,-0.10444,-0.20649,0.15054,0.023005,0.20154,-0.053488,-0.181,-0.027962,0.12507,0.023065,0.023084,-0.00243,-0.002485,-0.002491,0.048506,0.099534,-0.027969,0.023059,-0.12998,0.023059,-0.002448,0.048555,0.023029,-0.079014,0.048512,0.048531,-0.02798,-0.002467,0.12507,0.023072,-0.10444,-0.12999,-0.027987,-0.027974,-0.028005,0.048506,0.074038,-0.027962,-0.053464,0.048561,0.04858,-0.002448,0.099521,-0.002485,-0.079021,-0.0535,0.048543,0.023047,-0.027956,-0.078941,-0.053446,-0.02795,0.023041,-0.027998,-0.053519,0.048525,-0.027962,-0.027969,0.023029,0.099583,0.099595,-0.002454,-0.002485,-0.053495,-0.028005,0.048536,0.048555,-0.027956,-0.027969,0.023054,-0.053446,0.023054,0.023035,-0.002497,-0.002497,-0.002497,0.023041,-0.053464,-0.078959,0.074081,0.023072,-0.002461,-0.053495,-0.13002,0.099521,0.048518,-0.027974,0.074069,0.023054,-0.053439,0.023054,-0.002461,-0.002491,0.048525,0.07402,0.048536,-0.002454,-0.002436,-0.002448,-0.053446,-0.053464,0.048525,0.12503,-0.13001,-0.15553,-0.053476,0.023065,-0.053451,-0.10447,-0.002454,0.023054,0.17606,0.099534,0.12504,0.074033,-0.15551,-0.078977,-0.002448,0.074051,0.074075,0.074062,-0.002461,0.12505,-0.07899,-0.078996,-0.13001,-0.12999,0.099546,0.12507,0.04858,-0.027925,-0.002454,-0.027993,0.023005,-0.002491,0.023029,-0.002454,0.09957,-0.002448,-0.027969,-0.002461,-0.002461,0.12507,-0.027969,-0.027993,-0.002497,-0.10449,-0.002454,0.023065,0.12509,-0.027944,-0.002472,-0.028005,-0.002497,-0.002497,0.023017,-0.053482,-0.027944,-0.02795,-0.02795,-0.10446,0.023041,-0.027993,-0.28306,0.048518,0.15055,0.074062,-0.027962,-0.02795,-0.027944,-0.002448,0.023041,-0.002497,-0.002485,-0.002491,-0.002472,-0.002472,-0.002461,-0.078972,-0.027944,0.0741,-0.027962,0.099534,-0.027987,-0.13,-0.053506,0.12504,0.023041,-0.027931,0.023065,0.048561,-0.05347,0.023035,-0.02798,-0.079008,-0.053495,-0.10447,-0.027962,-0.027962,-0.027956,-0.002418,-0.027956,0.074026,-0.002479,0.048531,-0.18101,0.048518,-0.027962,0.074069,-0.027938,-0.002436,-0.10449,-0.0535,-0.027993,-0.002479,0.023023,0.048531,-0.053476,-0.12997,0.12511,0.023072,0.048543,0.09954,-0.078984,-0.002491,0.048506,0.02301,0.048555,0.023047,-0.002418,0.023078,-0.002448,-0.002503,0.023017,-0.002485,-0.002472,-0.07899,0.048543,-0.078972,0.023059,0.048592,-0.053446,0.023029,-0.079021,-0.028005,-0.13002,-0.027969,-0.05347,0.074062,0.099588,-0.027931,-0.027969,0.023017,0.023029,-0.002485,-0.053519,0.048543,-0.002461,0.023035,0.023059,-0.078935,-0.15548,0.09954,0.023029,-0.0535,-0.079014,-0.078996,-0.002443,-0.027944,-0.027974,0.22708,0.048549,-0.027987,-0.078972,-0.053495,-0.079008,-0.10449,-0.027969,0.023072,0.023065,-0.053464,-0.027956,0.048536,-0.027987,0.074013,-0.002497,0.048549,-0.002454,-0.053476,-0.053458,0.048585,0.048567,-0.002491,-0.028011,0.02301,-0.002461,0.048531,-0.07899,-0.053451,0.04858,-0.15545,-0.05347,0.17606,-0.002485,0.048512,0.15053,-0.002454,0.048549,0.074062,-0.027938,-0.053446,-0.053464,-0.053476,0.15054,-0.002491,0.099521,0.048536,0.048561,-0.12997,-0.078966,-0.12996,0.048555,0.12505,-0.027974,-0.1045,0.02301,-0.1045,0.048536,0.099559,-0.00243,0.048592,-0.078972,0.023029,0.048512,0.022992,-0.053513,-0.002485,-0.078966,-0.10445,-0.027925,0.023065,-0.02798,-0.002479,-0.05347,-0.027993,0.048506,-0.053476,-0.002443,0.023059,0.023047,0.023054,-0.002436,0.12506,-0.002497,-0.13001,-0.10451,-0.027987,-0.053464,0.074057,0.048561,-0.002418,-0.053464,-0.002479,-0.13,0.023005,-0.028011,-0.002472,-0.027962,-0.002467,0.074087,-0.053446,-0.12999,0.074038,-0.027969,-0.079014,0.099528,-0.12998,-0.053476,0.048573,0.048549,0.023065,-0.05347,-0.002472,-0.053476,0.023005,-0.027993,-0.002454,-0.027969,0.048561,-0.053427,0.074069,0.048549,0.023041,0.048518,0.07402,0.048536,-0.15549,-0.10448,-0.002448,0.023084,0.048567,-0.002448,0.048549,0.022998,-0.002491,-0.053488,-0.002491,0.048549,-0.078966,0.048567,-0.02792,-0.12996,0.15054,0.12503,-0.15554,0.15054,0.099564,-0.078977,0.048555,-0.078923,0.048567,-0.12999,-0.027974,-0.002485,-0.002516,0.0485,0.099552,0.099552,0.023054,0.048549,0.048567,-0.002443,-0.027974,-0.1045,0.048536,-0.002485,-0.027969,0.048549,-0.027974,-0.002436,0.023084,0.023054,0.074013,-0.10452,-0.053506,-0.05347,-0.05347,-0.027969,0.099564,0.099588,0.023072,-0.027987,0.074026,-0.053488,-0.079008,-0.002497,-0.027956,0.023054,-0.002461,-0.053446,0.099588,0.12507,0.12505,-0.23202,-0.10451,-0.02798,-0.10449,-0.078984,0.12505,0.023065,0.074069,0.048549,-0.12998,-0.078996,0.07402,0.074044,-0.027969,0.048555,0.074062,-0.002423,-0.00243,-0.02798,0.048531,-0.053482,-0.028011,0.048512,-0.002461,-0.078966,-0.053476,-0.002454,0.15057,-0.002448,-0.002454,-0.078984,-0.1045,-0.053513,0.023035,0.09957,-0.053464,-0.053439,-0.10446,-0.053476,0.12504,0.07402,-0.002485,-0.10449,-0.02795,0.023041,-0.027969,0.12508,0.17609,-0.02795,-0.078984,-0.053488,-0.053506,0.048506,0.074026,0.048555,-0.078959,0.048567,-0.15547,0.023047,0.074038,0.023035,-0.13,-0.053476,-0.10451,0.15055,0.074057,0.023065,-0.078941,-0.10447,-0.1045,0.074033,0.023029,-0.1045,-0.1045,0.048549,0.074069,-0.053427,-0.10445,-0.053464,-0.078996,-0.028005,0.023023,0.074033,0.023047,-0.053476,-0.1555,0.023072,-0.002423,-0.027956,0.048531,0.048512,-0.027993,0.048512,0.023047,-0.027969,-0.10448,0.074069,-0.00243,-0.027944,-0.053495,-0.079008,-0.027987,-0.10451,-0.079002,0.074044,0.12508,0.17608,0.12508,0.074069,-0.1045,0.048512,-0.002467,-0.002485,-0.053495,-0.002443,-0.002454,0.074057,0.1506,-0.027956,-0.027987,-0.13,-0.002467,-0.10449,-0.053495,0.09954,0.048567,-0.053458,0.074069,0.074062,0.023035,-0.028005,-0.053482,-0.02798,0.023035,-0.053495,-0.027974,0.023072,0.074087,-0.10446,-0.079002,-0.002503,-0.002485,0.048543,-0.053476,-0.05347,0.023047,0.1251,-0.15546,-0.15549,0.048531,-0.02798,0.023023,-0.053495,-0.002485,0.023035,-0.10447,-0.053446,-0.027944,-0.053458,-0.002461,-0.10452,-0.002497,0.023023,0.048549,-0.002454,0.023041,-0.10448,-0.078941,0.048567,0.023029,-0.028005,-0.002485,-0.027974,-0.002467,-0.002467,0.048543,0.048585,-0.12995,-0.078966,0.074033,0.099528,0.048531,-0.10451,0.048531,-0.002454,-0.20648,-0.02795,0.15059,0.09957,-0.0535,0.074013,-0.053488,-0.027987,-0.002479,-0.027962,-0.027944,-0.053458,-0.027956,-0.027962,0.023041,-0.002485,-0.002497,0.048531,-0.078984,0.074062,0.023041,0.074069,-0.027925,0.09957,-0.002479,0.048512,-0.079008,-0.002485,0.023047,0.048543,-0.078972,0.074069,0.04858,0.09957,-0.053476,-0.20653,-0.18103,0.023005,-0.002472,0.20159,-0.002448,-0.20647,-0.053427,0.12509,0.12504,0.048506,0.02301,0.023017,0.023047,-0.002448,-0.15547,-0.12998,-0.12996,0.023047,0.099559,-0.053482,0.048506,0.20153,0.048518,0.048536,-0.002436,-0.10444,-0.078935,-0.053458,0.15054,0.048518,0.074026,0.048536,0.048531,-0.02798,-0.10447,-0.027931,-0.002418,-0.053464,0.048518,-0.13002,0.023035,0.023023,-0.002491,0.048549,-0.027944,-0.002443,-0.027944,-0.002461,-0.02798,-0.002467,-0.053476,-0.10451,-0.079008,0.099564,-0.02795,-0.053458,0.09957,-0.002443,-0.002454,-0.10451,0.02301,0.074013,0.023047,-0.10445,-0.10448,0.048555,0.074075,-0.05347,0.048531,0.023029,-0.078977,-0.079002,0.12504,-0.053464,-0.078972,-0.10447,0.048585,-0.078977,0.048536,-0.078972,-0.027993,-0.053506,-0.002479,0.074057,0.023047,-0.053451,0.023065,-0.027956,-0.13,0.023029,-0.07899,-0.053506,-0.002497,0.048555,0.12509,-0.002461,-0.053458,0.074081,0.074026,-0.027993,0.023029,0.023005,-0.10449,0.023054,0.023054,-0.053458,0.074075,0.023047,0.023035,-0.13,-0.0535,-0.053506,-0.053488,0.099546,0.074062,0.12509,-0.002418,-0.027931,-0.02798,-0.002485,0.022998,0.023017,-0.05347,0.023059,0.023047,0.074057,0.023047,-0.053458,-0.002454,-0.053488,-0.079002,0.099515,0.15056,-0.12998,-0.10449,0.048567,-0.002436,0.074075,-0.053476,-0.13004,0.12504,-0.002472,-0.002491,0.074051,-0.053458,-0.10447,-0.10449,-0.027969,0.20158,0.048525,-0.028005,-0.15551,0.074062,0.023065,0.023054,0.12507,0.074069,-0.027944,-0.002479,-0.053525,-0.10452,-0.027969,-0.002461,0.074057,0.023059,-0.078947,-0.078966,0.023041,0.048543,-0.027987,0.048512,0.048512,0.074044,-0.027962,0.023041,0.023059,0.17609,0.023054,0.048531,-0.10449,-0.1045,-0.0535,0.048555,-0.053451,-0.027974,0.074057,0.12509,-0.002448,0.074051,-0.028011,-0.18105,-0.002467,0.074069,0.048555,-0.078972,0.023054,-0.002423,0.048573,0.074044,-0.20652,-0.1555,0.12502,0.02301,-0.027962,0.099577,-0.053446,0.074087,-0.027944,0.023035,-0.002479,0.022998,-0.002485,-0.002454,0.023054,0.074069,0.023041,0.048561,0.074069,-0.078977,-0.20653,-0.002491,0.099546,-0.053476,0.023023,-0.027962,0.074087,0.023084,0.12506,-0.1555,0.023041,-0.20652,-0.053513,0.074038,0.048561,-0.05347,0.074069,0.074087,-0.078947,-0.1555,-0.002497,-0.13001,-0.0535,0.048536,-0.002448,-0.078977,0.074062,-0.027925,0.048561,-0.002491,-0.0535,-0.078996,0.048506,0.074038,0.048555,-0.027956,0.048561,-0.10445,-0.10445,-0.027993,0.074026,-0.07899,0.048506,-0.002479,-0.078966,0.074062,-0.027925,-0.027956,-0.002454,0.048549,0.15053,0.023017,0.023023,-0.053488,0.023035,0.09957,-0.12994,-0.20648,-0.027969,-0.02798,0.048531,-0.002516,0.099521,0.074057,-0.002461,-0.027969,0.023078,-0.078947,-0.027969,0.048536,-0.10449,-0.053506,-0.002485,-0.15549,-0.12999,0.074051,0.048573,-0.053427,-0.078966,0.074026,-0.027993,0.023029
