-0.25751,-0.12999,0.20155,0.074062,-0.078972,-0.002467,0.074033,0.023035,0.023054,0.023023,0.023029,0.09957,-0.078972,-0.13,0.27808,0.048536,-0.10447,-0.35947,-0.232,0.22705,0.099546,0.22705,0.15057,-0.002472,0.048543,-0.13,-0.15549,-0.12998,0.099534,0.12508,0.074062,0.048543,-0.027974,-0.10447,0.12505,-0.027962,-0.10449,-0.002485,0.074069,0.22708,-0.078959,-0.15549,-0.02798,0.22711,-0.053464,0.099588,-0.02798,-0.1045,0.048543,-0.002472,0.09957,0.17606,-0.078966,-0.053451,-0.3085,-0.20649,0.074044,-0.002479,0.17604,0.35458,0.023029,-0.10448,0.09957,-0.15548,-0.10449,0.048536,-0.053476,-0.23202,0.22709,0.048555,-0.05347,-0.002467,0.023029,-0.027925,-0.002461,0.099564,-0.25753,0.099534,0.074038,-0.13002,0.17608,-0.10449,0.12507,0.074081,-0.027969,-0.35956,0.17601,0.048561,0.099637,0.48214,0.27811,-0.51254,-0.46156,-0.10452,-0.053513,-0.002491,0.22705,-0.002472,0.17605,0.048549,0.12509,0.074075,-0.10445,-0.027956,-0.232,0.20158,-0.02798,0.4056,0.15055,-0.33402,-0.48697,-0.61455,0.38003,0.25254,-0.053495,0.30358,-0.053495,0.023054,-0.053488,-0.23201,0.22708,0.45666,0.048555,-0.25746,0.048525,-0.84406,-0.25755,0.15047,-0.002503,0.35459,0.55863,-0.41044,-0.61455,-0.18103,0.91564,1.0687,-0.02792,-1.2266,-1.0226,0.53311,-0.002546,0.12498,0.43109,-0.46161,-0.053464,0.2526,-0.41044,0.048585,0.58414,0.048549,-0.53806,0.099583,0.25263,0.89024,0.20153,-0.35962,-0.58913,-0.07899,-0.053458,-0.1556,-0.7166,-0.61441,1.1964,-0.10448,1.0942,0.40551,-2.0683,-2.1702,0.32908,1.2216,0.86458,0.48201,0.63512,0.02301,0.50764,0.60969,0.40566,-0.43582,-0.97155,-1.5581,-1.6603,-0.28322,0.45649,0.76261,1.0687,0.53317,1.2727,-0.23199,-1.7876,-0.25757,0.58408,-1.1501,0.25262,0.50762,0.074013,-0.053555,0.45659,-0.053495,0.17607,-0.07899,-0.18098,-0.10445,0.63523,-0.002418,-0.5635,-0.25754,-0.33408,-0.002497,-0.002479,0.09954,0.45666,-0.23202,0.074038,-0.002534,0.30357,-0.53796,-0.41047,0.45659,0.048469,0.55861,-0.48708,0.074057,-0.18099,-0.027944,-0.232,0.22713,0.32914,-0.1045,0.94129,-0.15562,-0.35959,-0.84403,-0.283,-0.58916,0.50766,-0.053525,1.1453,0.38018,0.27809,-0.15552,0.099577,-1.2012,-0.69109,-0.25749,-0.027962,0.8136,0.25259,-0.99708,0.48216,0.073953,1.0432,-0.33401,-0.15546,-0.027956,0.63508,0.66069,-0.84414,-0.89504,-0.10449,-0.76761,0.32908,0.22707,-0.079014,0.25256,0.17607,-0.12993,-0.61465,0.94127,0.68615,-0.46154,0.15068,-0.53815,-0.51262,-0.56369,0.074033,0.45666,0.38013,-0.02798,-0.25752,-1.2011,0.25264,-0.30858,0.96673,-0.028042,0.45662,0.3036,-0.002423,0.15059,-0.41054,0.15056,-0.3851,0.45672,-1.1757,-0.53811,0.099552,0.32908,0.20156,0.38014,0.66074,0.20164,-0.25754,0.074075,-1.0227,0.074013,-0.61465,0.17598,0.15056,0.023181,0.27822,0.48216,0.63515,-0.10451,-0.51262,-0.76769,-0.10452,0.96679,0.45668,-0.002448,0.40565,-1.0227,-0.6147,-0.33406,-0.15552,-0.23197,0.48223,0.50776,-0.053476,0.20153,-0.10449,-0.079057,-0.28308,0.2015,-0.20654,0.43108,0.78829,0.27822,0.09973,-1.0736,-0.38506,-0.38516,0.40551,-0.18109,-0.18103,0.22706,0.30366,-0.58908,0.66074,-1.0226,0.68605,0.83914,0.27821,-0.20652,-0.35957,0.3546,-0.027809,-0.81856,-0.002491,0.53311,0.17589,0.073868,-1.0993,-1.8644,1.528,1.1965,-0.18117,1.885,-3.1902,-1.8133,0.48182,1.4768,1.3238,-0.20646,0.43106,-1.482,-0.89542,2.9818,1.9873,-2.1956,0.17589,-3.1649,0.55844,-0.51259,0.40582,2.42,-0.89495,-3.9811,-2.3744,2.5224,4.333,4.6395,-2.502,-5.4346,-1.2006,1.4766,3.2363,2.1653,-1.5837,-2.1958,2.0885,0.81305,-4.2609,-5.1538,6.0679,1.2725,0.048042,0.25219,1.0685,0.6606,-1.1245,-1.609,4.6905,1.8596,-7.2963,-2.2214,-1.9412,1.5021,1.9356,2.4208,0.023237,-0.33426,-0.74211,0.22693,1.8596,-1.8642,1.4258,0.91551,2.7517,-1.4564,-4.2102,-0.97175,2.803,1.1196,-0.2571,0.22708,-0.69135,-2.5779,0.78789,-0.028347,-0.07924,-0.30859,-2.9605,3.0069,-1.4049,0.60999,2.1907,-3.063,1.7318,-2.2724,-0.079179,1.8592,1.1706,0.94155,-1.6599,1.8593,-2.9865,0.40551,-0.079277,-0.23247,-0.41032,-2.527,1.401,1.4511,0.76248,-1.7882,0.22702,-3.0885,3.1348,3.4406,-0.79281,-0.33415,-0.43609,-0.2321,1.0176,-1.915,-1.2267,5.022,-1.6348,-1.0226,-0.74225,-1.9666,-1.4562,0.023157,1.7063,0.25299,-1.1247,0.4309,0.81349,-1.1248,0.94128,1.6554,0.55865,0.86468,0.38025,-2.1699,-1.3283,2.1397,-0.25766,-0.18122,0.50724,1.6533,-0.28305,-3.4196,-2.9605,-0.38486,2.2927,0.83886,0.32881,1.0178,-0.027998,-1.5837,0.25259,1.1454,0.023047,0.96631,-0.86931,-1.2012,5.7106,-8.1377,-2.7569,0.86435,1.4001,1.1961,1.3492,-0.25756,2.3694,0.43134,1.171,-0.9973,-1.0482,-3.0885,3.3639,1.7061,-4.7964,0.099528,1.1199,-1.1758,0.1757,0.048317,0.941,0.71168,0.60949,0.76298,0.048903,-0.002461,-0.28325,-0.02809,-4.6947,1.0431,-0.51253,1.5786,1.5275,-0.58892,0.48239,2.4205,1.2982,-2.2977,-0.18135,-0.30852,-1.2523,0.38009,1.4003,3.874,-4.7457,-2.3232,1.3747,-0.10473,0.12493,0.048078,1.222,0.78855,4.2571,-4.2104,-1.8645,-0.38562,-1.2269,0.45635,1.6553,3.7467,-0.1803,-1.2263,0.96645,-2.655,-0.028005,2.1652,-1.9153,-0.69113,-0.30861,-0.027871,1.5026,0.66055,-0.28302,0.3288,-0.079057,-2.3487,1.0691,0.074271,2.6755,2.4457,-1.2014,-1.3033,-1.0738,-0.71663,0.048629,1.4005,-1.1501,-0.23206,-0.48705,3.3383,1.63,-6.5313,1.63,0.4055,-5.8427,1.0176,2.4203,1.8592,1.0174,2.0123,-0.18099,0.1762,-0.61468,-0.38513,-2.5017,-1.0481,2.1143,-1.3283,0.76269,-0.00251,0.91537,-0.51274,-0.4612,-0.6655,1.0944,0.53301,-0.53824,0.63494,-1.3287,2.3184,0.63487,-3.7,1.5787,2.5479,-0.30804,-0.76764,0.81335,0.73683,0.5326,-6.2247,-0.1298,2.4207,0.3545,0.63493,-0.58933,0.22698,0.78831,2.038,-0.28311,-1.0993,-2.6548,-0.66552,1.4259,1.477,0.68598,-0.41071,-1.4307,-2.068,2.5988,1.7066,-2.2978,-0.61474,0.17592,2.4455,-1.0228,-1.5579,2.3953,2.3694,-0.56358,-0.69135,0.099473,-0.20652,-0.027901,0.99222,1.4254,-5.6127,-2.7059,2.089,0.66033,0.78806,-0.25723,1.7573,1.4003,-0.89508,-1.1246,0.40544,-0.86994,-0.30861,0.91565,1.12,0.78827,-0.97162,-2.5528,2.0377,1.3747,-3.4963,0.22701,-2.8841,0.76253,2.905,0.40547,1.0941,0.022852,0.86455,-1.2265,1.1196,-0.23188,-2.1701,1.0941,0.099399,-0.25767,3.9247,-2.5779,-4.5672,1.8339,1.8593,-0.46174,-0.053629,0.584,1.3236,-2.6547,-1.2011,2.242,0.94111,1.2214,-1.3795,-1.5835,1.2727,1.2218,-0.84417,-0.43616,0.71151,-0.20641,2.0383,-1.8133,-0.76763,0.76238,-2.5018,0.53295,1.3491,-1.4814,-0.74187,1.6295,1.3752,0.60952,0.53295,-1.2524,0.83908,-0.51247,-1.5836,0.35465,2.9304,-0.81852,-1.3541,-0.76773,-0.92029,0.12483,1.0179,0.45662,0.073953,-1.2777,0.35436,0.60956,0.17606,-1.5068,0.9156,0.94125,-0.61468,0.50749,-0.10432,-0.69095,0.099588,0.1249,-0.28299,0.099461,-0.18103,0.40563,1.2217,-0.18096,-1.0989,0.89004,-2.4508,-1.4564,1.4766,-4.2869,1.9617,2.6499,1.0941,0.83897,0.83909,-1.3031,0.048512,0.43098,-0.79285,-0.66564,-0.334,-0.43603,0.27801,0.27776,1.5782,-3.2659,-0.69051,2.2163,-0.33428,0.58385,1.7061,-1.0226,0.20158,1.7826,-1.0737,-0.027815,0.55862,-0.38502,-0.71668,0.32916,-1.1245,0.91587,0.20156,0.15047,0.073946,-1.7623,-1.7113,-0.10427,2.3184,-0.23212,-0.58897,1.1706,-0.33398,-0.61445,0.32904,1.2727,0.048555,-0.69102,0.32899,1.7828,-1.1247,-2.3231,0.35452,1.2982,-0.92042,0.73706,-3.0373,-0.38514,0.91555,1.1963,0.048598,1.3236,-0.53795,-0.71643,0.55863,0.048543,0.22703,-0.18109,-0.56359,-0.33399,0.25259,-0.25741,1.2728,1.4513,-0.89498,0.25231,-0.38509,-1.9662,-0.99712,0.12511,1.4512,0.53302,1.3746,-0.99701,-0.63993,-0.002577,1.3239,-0.69102,2.2676,-0.25754,-2.7057,-1.4563,-0.43623,1.8081,-0.89521,0.55856,-1.1244,2.0381,1.5533,-0.74218,-0.64016,1.7825,-3.2669,-0.48703,-0.4105,0.023108,1.9105,0.50746,1.5533,-0.48712,-0.43596,-0.4107,-0.66537,-0.81846,1.4766,0.40574,0.35464,-0.6657,0.22688,-0.41053,-3.1901,-0.5382,1.2982,0.86463,1.0686,0.50755,0.50757,1.9103,-0.053402,-0.10435,-1.252,-7.0155,1.2979,2.5479,0.76263,1.5022,0.12491,-0.2321,-0.41074,0.6095,0.63538,-1.3793,1.2218,-0.30863,-0.89518,0.099546,-0.61463,0.66048,-0.69122,1.3492,0.27849,0.86502,-0.38507,-1.2523,-1.1247,0.94103,-0.8695,2.9048,0.43091,-0.078819,-0.41058,-2.9863,-1.0738,2.4205,2.0125,1.6555,2.3691,-2.3999,-4.899,-0.028005,1.6807,1.0686,-0.79309,-0.20676,-1.5581,-0.58888,1.4258,1.2983,1.5531,-1.4307,-1.2521,0.58413,-0.79285,0.45639,0.45675,0.20152,0.43091,-0.15573,-2.17,0.30363,1.5535,-0.053555,-0.05336,0.99215,0.68595,-1.0483,0.25259,-4.7971,1.8338,1.6297,1.6554,-1.8643,-0.12997,-1.3542,0.55874,0.20152,0.38011,0.81363,0.048463,0.94107,-1.6346,0.43118,0.38028,0.50744,-2.6803,0.55861,0.22714,-0.25749,0.5075,1.298,0.53301,-1.5835,0.12524,1.7064,-0.20637,-1.4562,-0.94614,1.0428,-0.28302,1.0433,-0.63956,-1.4818,1.1449,2.2162,2.3696,0.32926,-1.4818,-1.329,-0.46156,-2.1957,-0.027907,1.6552,-0.86941,1.5535,0.074081,0.55842,0.048506,-1.0226,0.48216,-0.51269,0.71156,-0.41053,0.63518,-1.3032,-1.4304,2.3182,0.12519,-1.8897,0.96645,1.1961,-0.589,1.0432,1.0431,-2.7822,1.0942,0.60956,-0.51256,-0.35954,-1.9916,1.2729,1.4513,1.0686,-0.94635,-1.8388,-1.3795,1.1961,-0.94622,0.25248,-1.0225,0.63533,0.074283,0.78815,0.78821,1.655,1.7827,-2.0173,-0.8695,0.22717,-1.8641,-0.6658,0.68599,1.2471,1.5024,-1.2521,-0.028005,1.2981,-1.1244,-1.6857,0.074075,-0.48698,0.81365,1.7318,-1.3286,-0.46152,0.78793,-0.33416,-1.201,-0.76744,0.50782,1.1451,1.5787,0.91548,-3.2156,-1.5324,0.48201,1.8847,-0.053592,-0.05364,-0.51272,0.15064,-0.002491,-0.66542,-1.5836,1.9868,-0.89502,0.32909,0.76255,-0.92049,0.60976,-1.2522,0.94117,1.5788,0.71166,-0.35936,-1.2013,0.66042,-0.89516,-0.76754,1.1962,-0.43593,-0.71658,-0.84402,0.20157,2.6499,-0.8184,2.0635,-0.64012,0.048463,-0.38515,-1.0482,-1.737,-0.20656,0.94134,0.78819,-0.18097,0.17608,1.018,1.5788,-0.46169,-1.8643,-0.41069,-0.23197,-0.89507,0.91581,-0.74215,-0.63995,1.2471,1.5531,-2.4764,-1.8386,2.089,2.6758,0.50763,0.55838,-1.4308,-3.8534,1.0941,-0.79327,0.43106,-0.63987,1.7065,1.9357,0.83894,-1.5071,-2.6801,1.6551,0.17607,0.43107,1.7063,0.76266,0.12509,-1.1248,-1.1757,-0.61458,0.099668,0.048598,-0.38509,-0.76766,0.99227,1.8592,-0.79302,-0.43594,1.4258,0.91565,-1.3028,-0.79322,-1.8901,0.99205,0.73714,0.53344,2.7007,-2.5784,0.25257,-2.2723,-0.41017,1.5787,1.0431,1.0431,1.2981,-1.0992,-1.6601,-2.9353,1.7318,1.2983,1.2219,0.17598,-1.2522,-0.15551,0.45654,-0.46162,-0.84417,-0.079106,1.8335,-3.088,-1.711,2.5227,1.1706,1.6041,1.2471,0.43093,-0.079155,-0.84424,-2.4253,0.40563,0.91587,0.3802,-0.33402,-0.1046,-0.18094,0.89019,-0.74209,-0.30844,2.4967,-0.078966,-1.8386,-0.002503,-1.6345,-1.2776,0.45679,1.0684,2.2672,0.83907,-0.283,0.83914,-0.00254,-0.38497,-0.58904,-0.18098,0.55861,-0.71656,-3.1902,-0.12997,2.2163,0.91562,-0.97144,-0.4362,-0.18108,-0.053635,1.7317,1.7321,-0.76745,-1.1502,-0.48703,-0.028029,1.8084,0.022937,-2.5018,-0.97151,2.5479,0.6862,-0.4614,-0.10461,-1.5327,-1.0484,0.96657,0.99212,0.73725,-0.02792,0.12504,0.96664,-3.4195,0.81349,1.1453,0.63509,0.25254,-0.053629,0.48191,-2.5528,-1.7621,1.0432,2.2673,1.5787,-1.0733,-0.41054,0.96664,-1.1758,-0.99732,0.099448,0.25257,0.099595,0.12509,-0.078861,0.94112,-0.2575,-0.46133,0.15054,-0.41056,1.9612,-0.232,-2.7822,1.2472,2.7008,-1.7875,-1.3033,0.60935,0.17601,-1.2011,-0.13002,-0.41075,2.4714,0.71176,2.4461,-0.002436,-1.2778,-3.5983,-0.48712,-0.28295,-0.232,1.2472,1.1196,-0.61474,-0.002534,1.3239,0.60971,0.71155,-1.4052,-2.4506,-0.20643,0.63504,-0.232,0.7372,0.83906,0.48211,-0.5891,2.6752,-1.7875,-2.8587,1.094,0.12509,-0.66571,2.2673,-0.66548,0.83938,-0.97163,0.68604,-2.5274,-1.7366,0.38009,2.0123,3.3129,0.91565,-2.884,0.50749,0.20151,0.25259,0.48209,0.96654,-2.5018,-2.8843,4.2309,-2.3741,-2.8076,2.1652,0.99211,0.17587,1.5022,0.20158,0.099699,0.15066,0.63517,0.074002,-1.1757,-0.7165,0.022986,-0.35953,-0.25753,-0.25745,-1.7368,1.0177,1.4769,1.4513,-0.23191,-0.4105,-1.1247,0.99205,-1.1757,-1.4816,0.20163,-0.053482,0.96656,0.99223,1.1197,0.38012,-0.64006,-1.4052,0.15066,0.25251,0.58408,-1.9152,1.5277,-0.66551,-0.41049,-0.35977,1.6042,-1.762,1.5536,1.5532,-1.3288,-0.79314,0.83918,-0.002448,-0.66548,-0.66568,0.73702,-0.002412,-0.028005,0.6096,-2.5781,0.43135,1.5023,-0.20666,0.48197,0.32901,-0.84406,0.3798,-0.48705,-0.53809,0.4059,1.2984,0.8646,-0.5892,-1.0227,-0.74209,-0.30848,1.3491,0.32896,-1.0224,-0.71637,3.6189,-0.20653,-4.5673,0.25251,-0.25743,0.83898,1.1707,-0.81869,1.783,0.68616,0.63505,1.5277,-1.7876,-1.9407,-0.71677,0.15055,-0.05372,1.9361,-1.4304,0.27784,-1.0736,-0.79307,1.2983,0.48211,0.58407,-0.51265,-0.002479,0.3035,-0.20638,0.73708,1.0433,-1.3031,-0.41053,-0.7931,-0.23205,-0.71652,0.43108,1.5787,0.30346,-1.7111,2.3948,-0.79294,-3.4963,0.25254,1.4257,0.63514,1.0431,1.2982,-0.35964,0.32914,-1.8898,-0.10445,-0.48705,0.17601,-0.51252,-0.84408,1.5788,-0.25748,0.099613,0.3546,0.099228,0.20174,-1.0734,-0.38462,1.6042,0.60943,0.12485,0.17595,-0.6402,-0.66573,-1.2011,1.171,1.528,0.53306,1.1197,-3.3434,-1.1502,0.38007,-0.30853,0.66062,0.96674,0.83906,0.81368,-1.5582,1.3747,-2.1701,0.30373,1.0686,1.1452,0.023005,-0.64017,-0.46167,-0.053433,0.12504,-0.053451,-0.18106,-1.8385,0.17607,0.8903,0.17609,0.53321,0.20147,0.20142,-1.2522,-0.079039,0.58405,1.5787,-1.0224,-1.9408,0.63509,1.0177,1.2472,0.43112,-0.23194,-0.41056,-0.41061,0.96664,-0.46149,-1.2011,-0.28308,0.38005,-0.99701,0.32906,1.3747,0.15061,-0.10449,-0.43602,-1.3031,1.196,-0.13001,-1.7366,0.66074,0.66069,0.58425,0.45652,1.2472,-1.7877,-0.81843,-0.38493,1.4257,0.32875,-1.4306,-1.8642,0.99215,2.5733,0.22712,-1.5835,-1.4818,-0.58906,0.83915,-0.28301,-0.079045,-0.20638,2.6501,1.8594,-1.4052,-0.3851,-0.86971,-1.048,0.023078,0.22702,-0.18104,-1.2779,3.3896,-1.252,-0.30824,-0.1045,-0.43612,0.7881,0.15053,0.48211,-0.58915,0.63512,-0.002528,-0.71655,-1.8896,0.32902,0.60948,0.15057,-0.41041,0.81376,-0.41052,0.22699,0.68607,0.35452,-1.3032,-0.41042,1.0942,-0.61449,-0.51254,2.9305,-1.0482,-1.2266,-0.66561,-0.35958,0.58409,0.30352,0.50766,0.099387,-0.002307,-0.79294,1.1453,-0.97161,0.17602,-0.028066,0.45651,0.2015,-0.6655,0.25251,-1.5581,0.99209,-0.23191,0.30364,1.1196,0.40557,-0.35956,0.55865,-0.81848,0.58419,0.83905,0.023023,-1.0738,-0.69112,-1.4306,-0.94608,-0.12996,1.1451,1.6807,-0.946,0.45655,0.25259,1.5279,1.1452,-1.3541,-0.23199,-0.10452,0.07402,0.45669,-0.078935,-0.71663,-0.84422,-0.46157,-0.053464,0.48218,0.12502,0.20159,0.22708,0.66065,0.022827,-1.7368,-0.053262,1.9871,1.1962,-0.66564,-1.2268,-0.18112,-0.028072,0.099497,0.71166,-0.027913,-0.30847,-1.456,-0.28296,0.38,-0.97153,0.89008,1.6042,0.32919,0.99199,0.89018,-2.6292,-0.5125,-0.002503,0.17598,0.22695,-0.25756,2.2929,-0.2064,-0.74171,-2.8334,-0.43623,1.2217,2.2165,0.27802,-0.079008,0.45649,-0.74206,0.71147,0.12521,-3.5729,0.48208,0.53329,1.6554,-0.10461,-0.3086,-0.15557,0.125,0.17602,-2.0428,-0.20656,0.22723,1.987,1.2982,-1.5071,-0.92064,1.145,-0.38504,-0.538,1.9358,0.43118,-2.0173,0.40553,-0.84414,-0.99692,0.73714,1.094,0.12493,-0.0535,-0.078935,-0.66548,0.71152,0.30367,-1.048,0.71173,-0.25745,-0.078959,0.76255,-0.53807,0.81365,0.022974,-1.6346,0.78816,0.50752,0.89003,0.45639,-1.4817,-1.15,1.6554,1.9105,1.2728,-1.0737,-2.5019,-0.5127,0.27797,0.22712,-1.2519,0.81357,0.40555,0.78819,0.68626,-0.86953,0.12506,-0.74216,1.8336,-1.0736,-0.20627,0.35459,0.32894,0.53302,-1.3032,-1.5581,-0.00251,-0.18103,1.1962,-0.33382,0.35459,0.40551,-0.43603,-0.10445,0.45654,-0.053427,-0.84399,0.20155,0.99213,0.30355,-0.20649,-0.43595,-0.71662,-0.053702,-0.46153,-0.38484,2.2166,0.45664,-0.8697,-0.86967,-0.13013,0.25249,0.8646,-1.5325,0.48209,-0.56348,-0.027925,0.96663,0.58408,0.50759,0.686,-0.46151,-1.3541,0.1761,-0.028018,0.63511,-0.41051,-1.0736,0.71167,0.30353,0.30349,1.4002,-2.0426,-2.1957,0.50755,1.3491,0.278,-2.3231,-0.41057,1.3491,0.86457,0.58432,1.0943,0.48204,-0.4616,-0.94609,-0.46154,0.55863,-0.002387,-0.13002,-0.84414,-0.46145,0.53304,-0.15546,-1.303,0.25254,-1.0991,1.1452,0.94123,0.58405,1.2471,-2.1447,-0.46142,0.38009,0.94107,-0.61454,-0.078953,-0.99727,0.68621,0.50762,3.364,-1.1246,-3.1647,-1.0738,-0.64011,-0.41041,3.2366,-0.053311,-0.53806,0.91545,0.50752,0.073984,-1.7112,-1.0991,0.43113,0.43123,0.78825,0.22703,0.50764,-0.053427,0.12494,0.048378,-1.5325,-1.2266,0.66075,0.45644,0.35431,-0.79296,-1.1245,0.40561,1.0176,0.40553,-0.23196,0.96664,0.60955,-1.4561,-0.69082,0.12512,1.1962,0.35451,1.0431,0.02287,0.22706,-1.3541,-1.8387,-0.71661,1.043,1.5024,0.81363,0.12507,-0.385,-0.6655,0.55841,-1.0481,-1.048,1.0941,0.48235,-0.51258,0.4821,-0.69105,-0.002607,2.0887,0.12504,-1.2011,-0.25752,0.81365,0.30355,-0.38501,0.17601,-0.43603,-0.69096,-0.15551,0.20157,1.6807,-0.99695,-0.84412,0.022937,-0.25755,-0.6144,1.7573,1.1454,-0.76762,0.30337,-0.97164,-0.53802,0.9156,0.43107,-0.71658,0.20153,-1.2265,-0.002485,0.43103,0.55859,0.12513,-0.15547,-0.89502,0.53314,-0.02792,-0.18096,0.12497,0.60957,0.45651,-1.2266,-1.3541,0.5075,0.17598,-1.1499,-0.23188,0.60954,0.60948,1.451,0.53316,-0.71636,0.91576,-0.89512,-0.86968,0.83907,0.53314,-0.74206,0.3036,-0.58918,1.0432,-1.201,0.12538,0.12482,0.81354,-2.8841,1.6299,0.38003,-0.25771,0.3544,-0.10459,0.50751,-0.71642,0.048696,0.53314,0.17601,1.1706,-1.2521,-0.63987,0.78819,0.58411,-1.2012,-1.0483,0.099546,0.73715,2.4713,-0.30855,-0.71663,-4.3633,-0.61446,2.0377,0.43099,1.7827,0.45652,-0.079021,0.38003,-0.20653,0.20158,-0.84402,-0.89491,0.40564,-0.12998,0.50768,-0.71665,0.94127,-0.33411,-0.79312,-0.3341,0.099503,0.63507,0.58409,0.94097,-2.8842,-0.23183,0.89019,1.0686,1.1962,0.76268,0.30347,-0.15555,-0.51257,-0.41051,-0.002369,0.023133,-0.53808,-0.53812,-0.84416,0.2781,-0.002374,0.22721,1.4256,-0.20666,-0.71656,-0.74202,0.023096,0.94121,0.73714,0.048555,0.63507,-0.64004,0.17609,-0.079039,0.12502,-1.5837,0.76255,-0.64001,0.40572,0.68615,0.5587,0.43106,0.278,-1.6856,-0.89494,-0.20657,0.68604,0.43115,0.99213,-0.35958,0.04858,0.09957,0.68625,-0.76767,-0.69111,0.35452,0.40554,0.35458,0.023121,-0.97142,0.91557,-0.79305,-2.1701,0.25242,0.27799,0.6096,0.30361,0.81359,0.15056,-0.10448,0.099613,0.25254,-0.20657,-1.3542,-0.81854,-0.35935,1.2728,1.5788,-0.20659,-0.81862,-0.30854,1.1706,0.43091,-1.6091,-0.053488,0.50784,-2.7058,-0.2065,0.83909,1.0687,0.58413,1.6552,0.1506,-0.71653,-0.99694,-0.12991,-0.99718,0.66036,-0.89491,0.71175,1.8848,-0.94603,-0.35961,-0.28315,-0.33409,0.38005,0.43106,-0.33401,-0.56362,0.83914,-0.81849,0.83919,0.15059,-0.078617,-0.15542,0.048469,-0.13014,-0.41069,0.32905,0.48206,0.6351,-0.97141,-0.4615,0.66054,-0.99707,0.63512,0.68608,-0.51252,-0.18104,0.099394,-1.303,0.6097,1.7064,-0.74192,0.35449,-0.48718,0.53305,1.196,-2.4762,-0.71641,0.58409,0.94118,1.0431,-0.027993,-1.5581,-0.1301,0.2016,2.5478,0.6863,-2.9605,-1.4308,-0.053696,0.89014,0.32908,0.2526,0.45655,0.12504,-0.053446,0.53311,-0.33401,-1.558,-0.12997,0.76273,-0.079045,0.22697,0.55857,0.45652,-0.84411,-0.61448,1.5022,0.15068,-3.0117,-0.18098,0.89002,1.1195,0.22701,-0.58898,0.3801,1.2471,-0.25746,-0.81849,1.1452,-1.7876,-1.3797,2.5222,-1.864,-2.1192,1.7316,1.7318,1.1964,0.12527,-0.43613,-1.3543,-0.84429,-0.58918,1.1964,0.30362,-0.28272,-0.92076,-0.002613,0.30353,0.94113,-1.5581,-0.9205,1.553,0.022894,0.91569,0.30371,-0.58878,0.30371,0.48209,0.35453,0.43093,-0.56365,-0.51259,-0.51262,0.94119,-1.2776,-0.43591,-0.002423,1.1454,-0.79319,-0.05372,-0.74211,-0.81856,0.38001,1.9869,-0.28282,-0.4359,0.12488,1.8337,-0.28294,0.38025,0.76273,-0.66566,-1.6347,0.20141,0.17592,-0.1301,-0.66551,-1.2775,1.3238,0.55867,0.86461,-0.20665,-0.38503,0.099559,-1.507,0.94106,-0.66541,-0.15549,0.66061,-0.20639,0.76265,0.53288,-1.0481,0.71171,0.32929,-0.4615,-0.13009,-0.13007,0.86456,0.1761,0.81362,-0.71663,-1.0992,-0.74204,0.71173,-0.38497,-0.30846,0.45665,1.6808,-1.2011,-0.48702,0.50755,0.48209,0.40554,0.81357,-0.94608,-1.0991,0.3035,0.89004,-1.6856,-0.66542,-0.002436,0.89026,0.50757,1.2727,0.58401,0.022858,-1.0228,0.32912,-0.20636,-0.15532,-0.97158,-0.079051,0.7116,-0.79307,-0.53807,0.17611,1.1452,0.99221,-1.2521,-0.35954,0.074038,0.43108,0.125,0.48205,-0.23198,-0.33395,1.4005,0.099491,-0.81866,-1.6602,0.43102,0.45649,-1.3031,-0.92058,0.40558,0.6606,1.5023,0.58412,0.66074,-0.28305,-0.66566,0.86455,-0.51245,-1.1755,-0.691,-0.053451,0.022913,-0.33416,0.76264,0.78821,-0.25739,0.66067,-0.56356,-1.3797,0.94114,-1.5072,0.048787,1.0685,0.91553,0.63507,1.4766,-1.456,-1.7366,0.45655,-0.38508,-0.079002,0.17607,0.17603,0.63515,-0.20639,-0.078892,-0.58904,0.38005,0.45646,-1.3796,-0.76761,-0.12993,-0.028078,1.1961,-0.43601,0.48232,0.30365,0.048451,0.17604,0.27806,0.71158,-0.66553,-1.1756,-0.38508,0.53316,0.35448,-0.28296,-1.4305,0.32903,0.6096,0.68609,0.17603,0.40558,0.94106,-1.456,-0.18092,1.1706,0.35448,-0.46156,-0.92062,-0.23201,0.53306,-0.15537,0.73713,-0.23202,-0.99708,0.27794,0.83933,-0.002461,-0.027871,0.2526,0.91561,-1.4051,0.17601,0.6095,0.99227,2.2926,-2.2213,-2.2977,-0.97151,0.60977,0.91568,0.60955,0.37998,0.17604,0.15057,0.7372,-0.51263,-0.41054,0.023103,0.58424,-1.2521,-0.7421,-0.23208,-0.38499,0.89018,1.8081,-0.10445,-2.5017,0.78814,1.0176,0.2271,0.50766,-0.15554,-0.86947,0.63507,-0.25746,0.35456,1.1195,0.30354,-1.7619,-0.48711,-0.86965,0.78802,0.048604,0.099497,-0.053488,0.60968,-0.66541,0.048622,0.12505,0.22705,0.71149,-0.81859,-1.0735,0.48207,0.83919,0.25252,-0.41057,0.43105,-0.74201,1.1199,0.22705,-0.23214,0.25257,0.3546,0.099583,-0.58912,-0.53807,-0.25751,-0.002418,-0.002436,-0.25753,0.12509,0.27809,0.12507,0.50759,-0.002528,-1.5071,0.43103,-0.2319,-0.3594,0.96665,-0.028029,-0.1045,1.9356,-0.30868,-2.5529,-2.4763,0.83921,1.3748,2.0123,0.63515,-2.2466,0.074013,0.73709,1.3492,-1.0225,-0.76753,0.45665,-0.43614,-0.74225,-0.23205,0.20156,0.4312,0.023029,0.76255,-0.94611,-0.25748,-0.56353,0.099711,0.71166,0.53301,0.60965,-0.41048,1.0943,-0.46155,-0.10447,-0.35957,-0.35961,-0.58909,-0.25753,1.1705,0.27803,-2.6546,-0.46143,1.3746,0.38006,1.1961,-0.078855,-1.8386,0.099528,1.0943,1.3492,-0.13013,-0.13007,-0.283,-1.3795,0.68613,-0.1045,-0.74209,0.35458,0.073953,-1.7621,1.2727,0.27809,1.0686,0.22699,-1.6346,-0.89507,0.99218,0.7626,0.48205,0.38009,-0.053562,-1.099,-1.1246,0.25251,-0.027962,-0.69102,0.58403,0.4566,0.40555,-0.94605,-0.385,0.048622,0.45659,0.45653,0.94117,-0.43611,-0.89509,0.12498,0.1507,0.7883,-0.69111,-1.2522,-0.81862,1.0177,1.5531,-0.71656,-0.078959,0.63513,0.22705,-0.46153,-0.053402,0.53302,-1.0734,-0.58913,0.96672,-0.20649,0.099448,0.40545,-1.3031,-1.4559,1.6554,1.7062,0.048476,-0.86964,0.96649,-0.15554,-1.1245,-0.94595,0.48192,-0.053525,-0.18085,0.25263,1.5277,0.22702,-0.18097,-0.25751,0.20156,0.60962,-1.5582,-0.46156,0.15062,1.6044,0.68624,-1.1756,-0.86973,-0.43614,0.53309,0.99221,0.15064,0.73689,-1.4561,-0.79295,0.38013,0.17598,2.5477,-0.41053,-2.833,0.099497,-0.30851,0.40558,0.96664,0.45651,-0.38507,-0.79304,0.6862,0.68615,-0.10452,-1.15,-1.2012,1.2215,-0.078812,-0.48692,0.43103,-0.43612,-0.46161,0.63515,1.1198,0.17615,0.023114,-0.15562,-0.89513,1.0176,-0.12985,-1.507,-0.23187,0.25249,1.2216,0.073946,-0.18101,-1.2266,0.023005,0.86463,0.91564,-0.33403,0.17605,-0.38497,-0.66548,-0.053384,0.048604,-0.53799,-0.10459,0.48199,-0.71648,-0.53803,1.1707,0.89,-0.66549,0.20164,0.15054,-1.1501,0.68604,0.17594,1.0942,-2.1191,-0.66552,0.66055,1.0433,0.45655,-0.002479,0.12503,-0.28297,0.099466,-0.4361,-0.58909,-0.97166,0.27816,0.43115,0.89033,-0.64008,0.17609,0.50771,0.27801,0.073959,0.83899,-1.3032,-1.1245,0.96661,-0.25739,0.048585,0.68602,-0.76766,-0.35945,0.48204,0.63521,0.40564,1.2981,-1.7112,-0.79294,-0.028042,0.2526,0.94115,-1.7875,0.53306,0.35442,0.58391,-0.64006,-0.81854,0.023072,0.71158,0.76269,0.38005,-0.05339,-0.56343,-0.41046,0.30356,0.022913,-0.28304,-0.64004,0.4311,-0.51247,0.68626,-0.078947,-0.30859,-0.028047,0.68608,0.27803,-0.027944,-0.027962,-0.46145,0.89005,-0.10449,-1.507,1.5787,0.074081,-0.61453,-0.028018,-0.13,0.66055,-0.18099,-0.81854,0.30356,0.40558,-0.92048,-0.33402,-0.33407,0.76252,0.76269,-0.66542,0.27806,0.30342,-0.89509,0.32917,0.68618,0.22707,0.02298,0.37998,0.2015,-2.5526,-0.97155,0.99216,0.12501,0.45664,1.5787,0.27795,-1.3286,0.22702,-0.25753,0.20169,0.023041,-0.41055,-0.64,-0.20653,0.09957,-0.053458,0.81366,0.76264,-0.86953,-0.69104,0.88997,0.45662,-1.5326,-0.002387,0.86459,0.048506,-1.7876,0.38006,0.94105,1.2981,-0.1045,-1.7876,0.53318,0.43115,0.38009,0.176,-0.25753,-0.23198,0.25255,-1.0225,-1.1756,-0.20656,0.38007,0.50757,0.76267,0.66061,-0.79309,-0.002454,-0.41055,0.099637,-0.15548,-0.079039,0.55872,0.25256,0.074149,0.35456,1.1194,-0.94611,-2.2721,0.35461,0.20155,0.43104,0.66061,0.76261,-0.18094,-0.89498,0.73711,-0.027987,-2.1957,0.40566,0.12503,0.53303,0.58393,1.0177,-0.58901,-1.2011,0.074062,0.35463,0.45664,-0.79299,0.22705,0.20153,-0.25758,0.15057,1.0176,-0.41062,-1.3542,0.43132,-0.1298,1.2217,-0.76766,-0.71667,0.66063,-0.1554,1.3747,-0.38504,-1.0226,-0.86956,-2.0937,1.0941,0.83911,1.0431,0.5841,-0.053464,-0.84402,0.099534,0.048518,0.099626,-0.053482,-0.46152,0.68608,-0.232,-0.38501,-0.71651,0.38002,0.15056,0.15054,0.12502,-0.46156,-0.15553,1.6553,1.1453,-1.0479,-0.053458,-0.74209,0.048438,-0.28306,-1.2012,-0.15554,0.96659,0.86456,-1.5836,-0.79302,0.60957,1.0942,-1.762,2.0125,1.6043,0.5075,-0.30868,-0.35957,-0.46162,-0.51248,0.15054
-0.18101,0.27809,-0.15549,0.048549,-0.10449,0.048549,-0.027969,0.074062,-0.05347,0.048549,0.048531,0.048555,-0.027987,0.074057,-0.053482,0.17607,-0.2065,0.15057,-0.2065,0.20158,-0.10449,0.17606,-0.027987,-0.15548,0.074044,0.099552,-0.12996,-0.053482,0.074038,0.17604,-0.02798,-0.05347,-0.13,-0.002461,-0.053446,0.20159,-0.15551,0.12505,-0.027969,-0.18099,0.17606,-0.15549,0.17607,0.048543,-0.027969,0.023029,0.20159,-0.078977,-0.027956,0.12502,-0.25754,-0.078996,0.023047,-0.18099,0.048561,-0.027962,-0.15548,0.12508,-0.053488,-0.078972,0.099552,-0.12998,0.45662,0.25259,-0.23193,0.07402,-0.43609,0.099521,-0.027969,-0.15551,0.15056,-0.027974,-0.20649,0.20159,-0.05347,0.32911,-0.078977,0.15059,-0.1555,0.074062,0.048531,-0.078972,-0.027998,-0.1045,0.12507,-0.33404,0.20157,-0.078966,-0.28302,0.38011,-0.20651,0.3036,-0.18103,0.12508,-0.10449,0.17606,0.048561,-0.12999,0.048561,-0.181,0.048506,-0.13002,0.22709,-0.12998,0.25262,0.15056,-0.18103,-0.30856,-0.002485,0.048536,0.35464,-0.61462,0.099521,0.43115,0.22712,0.86482,-0.15551,-0.23209,-0.4871,-0.028011,-0.56356,-0.283,-0.23196,-0.078977,0.25253,0.68617,0.40561,-0.3085,0.27806,0.25254,-0.027974,-0.20648,0.074026,-0.92054,-0.66553,0.43108,0.02301,0.5841,0.20151,0.30355,-0.10449,0.09957,-0.35951,-0.12999,-0.10443,-0.15547,0.12504,-0.18103,0.35462,-0.38505,0.023023,-0.33402,0.20153,0.099559,0.60961,0.15052,-0.38504,-0.41053,-0.18098,0.30368,-0.538,0.53309,0.71165,0.074057,-2.2212,0.38013,0.022883,0.45647,0.38006,0.4311,-0.23201,0.22707,0.1251,0.45664,-0.79296,-0.334,-0.41058,0.12507,0.38016,0.12512,-0.28303,0.35452,-0.3851,-0.15555,0.25255,1.4256,0.38014,-2.4251,-1.048,0.71159,0.32898,0.99221,0.35454,0.30356,0.22703,0.022986,-0.28302,-0.1044,-1.2775,0.074222,0.30359,0.30347,-0.053568,-0.30861,-0.51263,-0.18105,0.12505,0.38019,0.048525,0.86466,0.074087,-0.38492,-0.58893,-0.25748,0.40557,-0.1811,0.45659,0.25257,-0.58919,-0.13005,0.32906,0.38016,0.76273,-0.43602,-0.94611,-0.33401,0.023041,0.22721,0.30352,0.35462,-0.92062,1.043,-0.078953,-0.69108,-0.4614,-0.81859,0.99226,1.1708,1.0687,0.099479,-0.74223,-0.58918,-0.64012,-0.53807,-0.30856,0.35454,0.099644,-0.74195,0.78812,-0.8185,-0.15534,0.40561,1.0942,0.50755,0.15049,1.1198,0.048463,-0.66562,-0.12989,-0.58907,-0.23203,-0.41063,0.22699,0.17601,-1.1756,-0.71657,0.27808,0.30354,0.27812,0.099613,0.2526,0.074026,0.60959,0.4311,-1.1245,-0.8185,-0.58902,0.53314,0.94109,0.278,-0.51257,0.48208,-0.15553,-0.53812,-0.23198,0.53309,0.78819,-0.078794,-0.48705,0.30364,-0.58911,-0.18108,-0.35962,0.074008,-1.1756,0.63525,0.04842,0.5076,-0.41055,1.4258,0.5076,-0.3338,-2.1191,-0.64017,1.9357,1.8592,-0.66558,-1.1756,-0.078941,1.2981,0.43089,-1.8896,-1.201,1.2726,1.8594,-1.8386,-0.43615,-0.58921,0.76267,0.48215,0.81384,0.17594,0.30367,-1.6856,-0.079014,0.1759,0.43101,0.66064,-1.1755,-2.6802,3.2111,0.66067,0.073794,0.50742,-0.86967,-1.1502,0.17596,1.0689,2.3695,-1.4562,-0.46125,-0.94611,-0.94616,1.5277,-0.43589,0.25257,-0.079313,0.8644,-2.0682,0.5332,-0.027778,0.35489,-2.1193,2.3438,1.4256,-2.502,-1.2263,-0.35974,2.3694,3.6951,-0.92034,-2.9351,0.074264,-2.0424,0.99211,1.3235,-0.079161,1.6295,-2.0682,-1.762,3.9504,2.1657,-0.99716,1.9101,-2.5275,-1.2521,-0.053696,-1.5581,-0.33402,2.2163,-2.4504,-0.84431,0.50784,-1.8388,3.7471,3.4151,2.2672,-1.4056,-1.5329,-2.0685,0.55864,1.655,-3.6239,-0.23198,-2.093,2.1654,3.0579,-2.1703,-0.6147,0.6607,0.3799,-2.5276,2.2675,1.8335,1.6811,-3.4198,-1.6598,-2.2725,1.451,3.1345,1.5021,-1.89,0.68622,2.191,2.7778,-0.84416,-1.5329,-2.5528,-5.6894,1.9358,-0.97175,0.73687,2.8536,3.1094,3.2877,-0.51222,-1.1758,-2.8595,-2.6292,-1.1245,3.5173,1.0177,0.073617,2.6244,2.8283,-5.0004,-4.2105,-0.2578,1.5784,-0.79344,-0.15567,1.6297,-4.1336,4.308,2.6247,2.982,0.58358,-4.0322,1.0937,-1.8387,-2.6547,0.89026,1.1705,0.68594,1.0175,1.8592,-2.4503,-2.6543,1.655,0.40547,-0.61476,-0.35984,1.8084,0.048794,4.1037,-4.9498,-0.33452,-0.94617,-2.1446,0.63493,-2.655,3.8743,2.5228,8.5923,-0.97109,-4.6697,-2.7064,-0.53863,-1.6853,0.022961,0.45673,3.0579,-0.64035,-0.48711,0.96698,0.58402,-1.7367,1.9867,-1.0735,1.1453,-10.05,4.2054,1.4768,0.89033,1.6553,1.5021,-0.92088,-0.86979,-0.079295,-0.23382,-5.7146,4.2823,3.2363,-1.5325,2.8537,-2.7059,-1.8642,0.68593,0.68613,0.78814,-0.79297,-0.23203,0.43086,1.5788,0.45647,1.7064,-0.053206,-3.5215,-1.8898,0.50755,1.6043,1.2214,-0.86984,0.048244,-2.629,0.074044,3.1855,1.9362,2.3188,0.073849,-2.8084,-0.94617,1.8078,0.63588,-0.79291,-3.6495,-0.56392,1.3237,1.0175,0.20144,0.83922,0.8137,3.6956,-4.261,-0.46115,1.3745,-0.6147,-0.58937,-0.9973,1.8592,0.71145,-3.7,-2.4506,1.196,1.9869,2.2675,2.8286,0.30355,-1.3034,4.1284,-1.1246,-14.335,5.6851,0.66039,-1.0738,1.1961,0.96659,-1.8134,-1.2523,2.5986,-2.0422,-0.61382,5.9655,-1.0739,-0.56353,0.78786,1.3745,-5.2052,0.482,2.2929,-0.71644,-0.15557,1.1707,3.5169,-2.17,-6.174,1.6552,0.58401,1.349,3.0577,-1.6602,-0.3336,-0.12994,0.83901,-3.0118,1.1449,0.66065,-0.2319,0.99211,-1.3033,0.53291,0.35472,-0.99707,-0.12994,0.45637,3.1093,-2.1698,1.1705,-3.1906,1.6551,1.7319,-3.8023,0.91553,1.2981,1.4004,1.9105,-0.46172,-0.43618,-0.86979,-0.43636,-2.3485,-0.8184,0.12526,1.7826,-0.46164,-0.56358,-2.068,1.3491,1.349,0.099521,-0.79286,1.732,3.262,-1.1502,-0.7167,-1.1757,-0.56336,-0.23207,1.1706,1.7568,-4.2866,-2.1955,0.55839,3.415,1.5023,0.15048,0.91548,0.83911,-0.51265,-0.97141,-2.0426,-0.12998,-0.79309,0.50757,0.71151,-0.48708,0.023243,2.1911,0.15056,0.022791,-2.0684,-0.23203,0.38011,-0.15554,0.76263,1.3747,-2.2211,0.12521,0.45677,0.5587,-0.58925,1.2981,0.96619,-0.81829,-1.0735,1.2219,-0.18115,0.30334,-1.1757,0.68615,1.0176,-0.48685,-2.196,1.018,-0.51262,1.1713,0.89,0.22718,-1.8898,-0.71681,-0.053616,0.22696,-0.66586,0.50754,-0.7419,1.3496,2.4716,-0.69125,-2.2978,-0.64006,1.1195,1.1451,-0.69097,-0.74179,1.2726,0.91562,-3.2923,-1.8896,2.8027,0.66068,0.91567,-0.46177,2.8028,-0.79283,-0.25705,0.55866,-0.97176,-1.941,-0.99733,-1.6346,-0.053531,0.43111,1.8336,2.2927,-7.4743,1.2728,-1.7875,2.0631,2.7519,1.5023,0.96643,-0.41051,-2.5784,1.6556,-0.2065,-0.1556,-0.86976,-0.13004,-0.18103,-0.23198,-0.58895,0.20139,2.3946,-4.0826,1.12,3.3386,0.15026,-3.1645,-0.15577,3.2113,0.94113,-0.66582,0.50741,0.12492,-1.9662,-1.2266,1.0941,0.40567,0.43121,0.27801,-0.48712,-2.5782,1.2982,0.94131,-0.86925,0.27811,-0.20663,-0.43616,0.43088,-0.41084,3.0581,0.25258,-2.323,-0.84409,0.02309,0.66042,3.4148,-2.6546,-3.9297,0.17609,0.83912,1.9102,2.1398,-1.303,-0.79304,1.3236,-0.10452,-0.51264,0.0741,-1.3544,-1.3799,1.9103,0.99224,0.86513,-3.1394,-0.48716,0.227,1.3239,-0.33406,-0.43609,0.38001,-1.6603,1.9612,-0.99717,0.12551,0.76272,0.96671,0.176,-1.3797,0.48199,0.022937,0.25254,1.6806,0.15049,-4.6694,0.83924,-0.7928,3.8742,0.048487,-0.99721,-1.0992,-0.43615,0.25233,-1.3796,1.0179,1.2728,-0.63997,0.27799,-0.028042,0.35453,-0.3851,-0.35957,-0.10456,1.5279,2.3692,-3.7259,-1.5581,0.76274,0.17619,1.5276,-0.028139,-0.10424,0.25248,1.5535,-0.41057,-0.81879,-1.4309,-0.053525,-0.15552,-1.558,1.4513,1.3239,1.6805,-1.252,-3.2667,-1.1246,-1.5837,2.9048,0.45649,0.96661,0.99212,0.71153,0.73709,-1.8386,-0.46158,-0.25773,-0.92019,0.53345,2.3952,-0.51272,-0.58925,-0.94632,-0.74223,0.35454,0.20164,-0.48716,0.023035,-0.53798,1.7831,0.40568,0.20146,-0.5124,0.22715,-0.61463,-0.33416,0.5841,1.0432,-1.4052,1.9356,0.96668,-5.0009,0.89016,-0.76739,2.2164,1.247,-0.15567,-0.15559,-2.7311,2.1141,2.3437,-5.4088,0.96684,0.73708,1.9358,0.96652,0.83905,-1.2011,-2.5272,0.32877,0.2783,-0.002503,1.987,0.023023,-0.7165,0.94107,-0.79309,-1.7623,0.048585,0.55852,-0.002491,-0.33397,0.73721,0.60959,-0.28292,-0.81865,-0.38508,0.83917,1.3747,0.73719,0.073984,-0.20659,-0.46157,-2.9095,0.73719,2.0884,-0.56346,-0.053506,-0.92058,-0.23184,0.2524,1.1196,0.71163,0.6605,0.86461,-2.8841,-0.63989,1.0689,-0.41041,0.73698,0.20128,0.86454,-0.20655,-0.46143,-0.81865,-0.51266,1.7828,0.78825,0.27806,-1.8135,-1.9404,0.86486,1.7574,0.50766,-0.2831,-0.53815,-0.56362,-0.10449,-0.33405,0.27806,0.35459,0.02298,0.60957,-2.0172,0.76245,-1.3797,-0.002173,3.1855,-0.8695,-1.8386,0.38001,1.9356,1.145,0.86451,-0.79299,-0.58888,0.40557,-1.8642,-1.2776,-0.20649,0.68612,0.35451,-0.28314,-1.0225,0.02309,0.73722,2.0635,0.30351,-0.74212,2.0885,-1.252,-3.7513,0.15036,0.81333,0.60982,-0.97134,1.3492,1.0687,-0.18103,-0.15554,-0.53812,0.686,-1.8897,-1.3795,1.4512,0.45648,1.1962,-1.3285,-0.028114,0.63504,-0.33391,1.094,-1.7621,-3.598,-0.25756,0.76272,2.2926,0.7625,1.5276,-0.15548,-1.4051,0.278,-0.94611,0.023047,2.2676,0.68632,-2.604,-0.35962,0.40558,-0.35952,0.45642,-0.4871,-0.79291,0.73724,-0.79302,0.45663,0.78811,0.38005,-0.35961,0.27808,-1.4816,2.3184,-1.0481,-0.15549,0.35437,-1.2266,-1.1501,0.53298,1.0687,1.3748,1.0687,0.45658,-1.2011,-0.28312,0.074228,0.71163,-0.58911,-3.6494,-0.2831,1.4767,0.32905,2.4202,-0.002503,-0.053372,1.3747,1.7828,-1.3285,-1.6347,-1.1247,0.07416,-0.10458,0.30356,1.6809,0.38012,-1.1501,-1.9154,-0.51259,0.40558,1.0432,2.0887,-0.15532,-2.4251,0.83918,-0.23224,0.22696,1.2471,-0.58881,1.1198,0.68619,-0.69127,0.048458,-2.3487,0.6863,0.37999,-1.2777,-0.10455,0.40557,-0.15551,2.7518,-3.2665,0.73731,1.9612,0.50737,2.165,-0.23204,-3.5473,0.73715,0.63504,0.25263,-1.7876,0.22705,0.43107,0.17604,0.3291,-0.43609,0.6608,0.32917,-0.35958,-0.13009,-0.74222,-0.002387,-0.078966,0.022986,-0.23204,-1.0228,-0.35968,1.4769,-0.30833,1.8592,-0.69111,-2.2464,2.089,1.553,-0.48723,-1.6858,-1.5328,0.66049,0.50764,0.91556,2.1653,-3.7257,0.91606,0.4056,0.30344,0.15045,1.2216,-0.61445,-1.0736,-0.079057,0.30354,0.12507,-0.81865,0.30357,0.15062,1.6044,-0.35956,-0.66562,0.023047,-0.20647,-0.48713,-0.30849,-0.28305,0.4055,-0.589,-0.027993,0.68621,0.73726,0.27814,0.43105,1.4512,-1.099,-1.1248,-0.38514,-0.13007,-0.23178,-1.1245,1.8591,0.81368,-0.61455,0.686,-1.303,0.35468,1.7571,-0.86975,-2.119,2.0633,0.91589,-0.181,-0.079002,-1.558,0.20141,0.15032,-0.07913,0.40552,0.048585,-0.69099,0.94139,0.94131,-0.61463,-0.23213,-0.81871,-0.334,0.30366,0.68627,-0.002485,1.196,-0.99707,-1.3795,0.76276,0.96674,-0.41058,0.76243,0.88996,-3.1138,-0.002461,0.48199,0.50757,-0.25749,0.43117,0.60952,0.20167,0.27822,0.71188,-1.2012,-0.20657,-0.33406,0.17597,-0.64004,-1.9152,-1.0225,-0.23198,1.7573,1.1962,1.1196,1.5021,-0.25758,0.074038,0.3036,-0.89501,-0.9206,0.073989,2.0632,-1.3539,-0.48683,-0.43612,-0.28308,-0.23201,-0.12992,0.66064,-0.23224,0.023065,-0.232,0.86476,0.50762,0.40552,0.48206,-0.25745,-1.3541,-0.33408,-0.053335,0.71157,0.96678,0.20159,-0.002528,-0.10456,-0.15561,-1.0225,-0.053439,-0.7164,-0.15554,0.35437,1.5277,-0.10444,0.99241,0.63518,-2.1446,-0.53815,0.32892,-0.002588,0.073977,0.40556,0.15055,-0.027882,-0.027944,-0.89505,0.30358,-0.41058,0.68628,0.3036,0.66077,-0.35951,-0.38511,-0.41064,-0.053665,-0.92059,0.76245,-0.1807,-0.7675,1.1707,-1.2776,0.53307,0.8136,0.83908,-0.13,-1.8132,-0.1044,-0.002332,1.2728,1.4511,-0.33413,-1.7877,0.66048,0.58407,-0.28295,-0.8695,-2.6292,2.9049,0.48197,-2.425,0.45657,-0.48705,1.6553,0.66064,0.048427,-0.15553,0.20146,1.8082,-1.2775,-0.69106,-0.61458,-1.3286,1.8084,0.86482,-0.10459,-0.33409,-0.027969,-0.46162,0.71177,-0.33405,-1.5838,0.38005,0.30365,1.1198,1.2726,-3.1903,-1.1756,-1.1502,1.1708,1.4766,2.7518,-0.86951,-1.9917,0.96657,2.8028,-3.6236,-2.3995,1.4256,1.8591,-0.43611,-0.94614,-1.0992,0.76277,2.038,1.4768,-1.1756,-0.84409,-0.25748,-0.15559,-0.25762,-0.76765,-0.74196,0.074062,-0.15541,0.7881,0.86448,0.50765,-0.38491,0.023035,-1.354,0.81356,-0.02798,1.1198,-0.589,-1.0481,-0.33411,1.0687,0.63512,0.48185,0.12485,-2.17,-1.7367,2.1652,1.7318,-0.86932,-2.2464,1.5534,1.0939,-0.28327,-1.3031,0.27815,-0.027864,1.5786,0.60957,-2.2722,-0.76752,2.1397,-1.2011,0.40559,2.0886,-1.0224,-1.1757,-0.20638,0.15059,2.2677,-0.002583,-0.58913,1.1959,-1.8642,-2.9096,0.53298,0.58403,0.27803,0.482,1.834,0.048458,0.22708,-0.43603,-0.15549,-0.94593,0.3292,-0.002485,-0.33416,-0.53807,1.3746,0.30361,-2.8077,-0.69118,0.25249,1.6551,-0.61445,-1.3285,1.8848,2.191,0.53335,-0.28315,-0.79322,-0.66567,-0.86972,-0.53814,1.4256,-0.94597,-0.43591,-0.33393,0.91581,1.2217,-0.89517,-0.10452,-0.4871,-0.7931,-0.053348,0.76268,0.96679,0.68606,-0.58916,-1.9407,-0.30849,0.023157,1.2471,0.60971,0.48199,-0.028042,-1.0736,0.48221,-0.20658,-0.053586,0.5585,-1.9661,-1.3285,0.99216,1.451,-0.6144,-1.5069,2.3184,0.48206,0.76248,0.6605,-0.56359,-2.6547,0.63509,1.6807,-2.1191,0.048487,0.76263,0.99222,-0.002528,-0.92053,0.32904,0.048512,0.32907,-0.15546,-0.51241,-0.46171,0.58408,1.6809,-0.41031,-0.76752,-1.2522,-0.48728,0.58416,0.40565,0.17593,0.30356,-0.66553,-0.35952,-0.30851,2.2672,-2.0423,0.17627,0.43091,1.8845,-0.58907,-3.0882,0.9665,0.99202,-0.30844,1.2982,0.22708,-1.8384,1.4511,-1.303,-0.94603,-0.002405,0.3545,-0.43597,-0.84416,1.0176,-1.9154,-0.58883,1.7062,1.5025,1.0942,-0.28311,-0.53818,-0.38508,-0.28306,-0.81866,-0.053384,0.02309,0.22706,-0.002497,0.35465,0.63531,0.22708,-0.13014,-1.4049,-0.7676,-0.028029,1.043,-0.028072,-0.84397,-1.5072,2.3947,0.099564,1.6043,1.1454,-1.3542,-0.053573,0.45647,-0.027962,-1.2776,-0.66556,-1.099,-0.002461,0.12505,0.89014,0.89014,0.023157,1.6806,1.1707,-6.6584,-0.079088,-0.23201,1.3236,1.3491,0.45658,0.023133,0.099345,-0.53812,0.22714,0.32917,0.55877,-0.4105,-0.61455,-0.43604,-0.41051,-0.18098,0.83904,0.81359,-2.6292,-0.84403,0.12513,1.9868,0.55842,1.4766,-1.0481,-0.53776,-0.56348,1.145,-0.30854,0.022992,0.12504,-0.28293,-0.51239,0.43106,-0.028023,-0.10452,4.0012,-3.6747,-6.7095,2.4713,2.1653,0.048476,1.8083,0.55852,-0.28315,-0.48706,-0.13004,-0.10452,-0.46147,-0.10452,-0.79305,-0.7674,-0.79302,2.0378,0.89016,-0.13003,-0.38513,-0.18105,-0.15549,0.15055,0.50762,-0.84401,-0.25749,1.2982,-1.0227,-2.1446,-0.12996,2.2164,1.0687,0.81352,-0.74211,-1.6346,0.63504,0.15055,0.8901,-1.3032,-0.43587,2.1654,0.58434,-1.9663,-0.92079,0.58403,0.89013,0.15048,-0.12999,-0.46148,-0.053458,0.68606,0.91556,-0.28289,-0.66537,1.2219,0.5331,-0.35957,-0.58917,-0.5126,-0.053525,0.048506,0.048525,-0.15535,0.22716,0.38008,-0.51267,-0.71665,0.35462,0.63516,0.81366,0.1251,-1.5072,-0.61462,-0.48698,0.27811,1.0687,2.0632,-1.5326,-0.79303,0.37999,-1.9916,2.1652,0.32912,-0.64006,-1.0992,-0.53803,1.3491,1.6808,-1.7365,-0.41057,-0.61465,0.35451,0.40569,-0.33394,0.73716,-2.2212,-0.1811,0.40557,0.4821,-0.12995,0.48209,0.074057,0.45659,0.048463,-0.18106,1.6297,-0.46132,-2.7823,0.40561,-0.002546,0.40557,0.81376,0.17601,-0.33409,-0.38507,-0.18101,-0.053458,-0.48709,-0.12995,0.78813,0.63523,-0.48688,0.76272,-0.10464,0.63503,0.83908,-0.38497,-3.0117,-0.25748,0.15049,-0.12997,0.9921,0.89014,-0.25755,0.099577,0.43111,1.0433,0.17609,-0.56359,-0.66561,-0.74214,-0.15553,0.63504,-1.201,-0.56345,-0.30843,-0.38489,0.76255,0.53297,-0.18113,-0.002467,-0.30863,1.0942,-1.4051,1.4517,0.6862,0.40544,-0.71671,-1.3798,-0.6402,0.83914,-1.048,3.415,-0.64,-1.6601,-1.7112,-0.3085,0.78807,-0.15549,0.58406,0.50764,0.27806,0.35464,0.12505,-0.30855,-0.20646,-0.25755,0.25257,0.27806,-1.2521,-0.10452,-0.58902,0.86463,0.074124,0.81365,-0.053616,-0.28295,-0.41053,1.0178,0.32907,-0.3086,-0.86957,0.07402,-0.43597,-0.13006,0.86463,0.048585,-0.51234,0.58407,1.4001,-3.5473,-2.7312,1.4,1.9357,1.1707,0.37998,0.02301,0.074062,0.15054,-0.56337,1.6552,-1.9405,-2.1446,1.1194,-1.0226,-0.97161,0.17593,0.94114,2.4202,1.145,-1.864,-2.476,0.96674,1.5787,0.27797,-0.30849,-0.20652,0.15053,-0.28301,0.15054,-0.002454,-0.002467,0.12509,-0.89503,-0.25753,-0.61457,-0.002503,0.6607,0.63513,-0.027974,-0.10449,0.02309,-0.13,0.40554,-0.76773,-0.46156,-1.3032,0.048678,0.12514,1.094,0.94129,-1.1756,2.344,0.40559,0.15045,-0.66558,-1.7622,1.1705,-2.5272,-0.63996,0.78816,1.2472,0.89011,-0.41055,0.73711,0.17607,-0.10445,-0.38501,-0.38502,-0.283,-0.25754,-0.027956,-0.25742,0.27808,0.15057,-1.0227,-0.053544,0.71171,0.73715,1.528,-0.56364,-0.48716,-0.81866,-0.5636,0.22712,-0.58908,0.89026,0.073989,-0.79306,-0.41057,-0.1554,0.50765,1.9102,-1.5072,-0.94589,-2.0681,1.2474,1.6551,1.757,-0.2321,-0.2575,1.7825,-0.97162,-3.4962,0.023108,0.8392,1.4001,0.45657,-2.7312,-0.25752,0.78804,0.60968,0.48213,1.4259,-0.74209,0.1759,-0.053622,-0.81854,-0.027993,0.43116,-0.078953,-0.43605,-0.41055,0.83917,-1.048,-1.1246,0.66065,0.73716,0.73712,0.022937,0.66057,0.3291,-1.9152,0.83914,-0.38499,0.12505,1.2216,0.63511,-2.9096,-0.41046,0.94101,-0.13008,-0.86955,-0.2575,1.1197,1.4768,0.58405,-0.028042,-0.33406,-0.38505,-0.35951,-1.8641,-0.12993,2.4712,-2.5527,-0.53796,0.22696,1.0179,1.0686,0.45647,0.45658,0.71168,0.48207,0.15051,-0.79316,-2.2212,-0.028018,0.89017,-0.53805,0.60967,0.32907,0.1251,-0.3851,-0.43607,-0.027969,0.2271,0.074062,-0.25756,1.7572,-0.8439,-1.0733,2.0634,-0.9971,-0.66569,-0.35968,0.71149,-0.51257,0.27802,0.32903,0.099595,0.048598,0.60957,1.3746,-2.629,-1.252,-0.38496,0.45658,1.4512,0.073995,0.58398,-0.15543,-0.86957,0.4311,1.1962,-0.1811,-0.027969,-0.35949,0.048536,0.27819,0.2526,-0.48709,-0.58913,-0.18105,-0.38503,0.023059,0.12505,0.45667,0.27809,-0.13002,0.5842,-0.079045,0.35465,0.53311,-0.51262,-1.2266,-0.48706,1.3492,1.0433,-2.8587,-1.1501,0.48194,1.8591,0.35458,0.58407,-0.793,-0.92051,1.0687,0.15051,0.12504,-0.053433,0.17604,0.53314,-1.4051,-0.33413,-0.002491,-1.5581,0.32909,-0.69096,0.63511,1.6296,0.50755,-0.002552,-0.283,-0.38505,-0.027956,0.53317,0.074111,-0.25746,-0.43604,0.53309,-2.5783,0.50762,0.81354,0.89032,-0.71651,0.58409,-0.053573,-0.15559,-0.20657,-0.13001,1.0941,-0.61451,-1.6345,0.30354,0.83908,1.3491,-1.7365,-0.33404,0.17604,0.35449,0.27814,-0.15552,-0.30854,0.53306,0.6861,-0.53796,0.099515,0.99212,-2.7055,0.38011,0.35446,1.6552,-0.53806,-1.0736,0.38003,1.6807,0.45658,-1.456,1.0685,-0.20646,-1.4307,0.17607,-0.41043,0.68612,0.38011,0.43108,0.35465,0.17606,-0.30858,-0.28307,-0.23196,-0.99704,-0.10452,0.91561,-0.25745,0.15059,-0.35956,-0.33404,0.63516,2.1397,-0.74177,-2.0172,-0.20658,0.55854,1.1196,-0.18097,0.048598,1.0176,0.38001,-2.3996,-0.41051,0.63512,0.25259,0.099503,0.35455,0.66071,0.73719,0.099473,-0.66571,-1.6092,-1.252,0.63527,1.4003,0.43108,0.1504,-0.38514,-1.2266,-0.43602,0.27808,0.94115,0.50759,0.40561,-0.38494,-0.15552,-0.46153,0.023176,0.38006,-2.1956,-0.13,0.73703,1.4001,0.38008,-1.0735,0.38,0.30356,-0.58903,-0.35941,1.3491,-0.74196,-1.099,0.43103,-0.10451,0.07402,0.17598,-0.053488,0.023084,-0.053446,0.71165,-0.97155,-0.66551,-0.23204,0.53306,0.20152,-0.028005,0.73708,-1.2521,-0.436,0.71165,1.0942,0.17607,0.023035,0.43104,0.17604,-0.76758,-1.4306,0.81366,0.48206,0.48201,-0.027969,-0.25746,-0.25754,-2.0681,1.1962,1.2472,-0.053433,0.43101,-0.002686,0.5585,-0.35937,-0.9204,-0.18095,0.022925,0.15052,0.35452,0.38006,-0.97149,0.8902,0.38005,-0.92058,0.35451,0.22707,-1.3796,-0.053458,0.43109,0.023047,0.12495,0.96668,-0.02792,-0.28298,0.30364,-0.33403,0.25259,-0.079051,0.099564,-0.002485,0.074038,-0.38502,-0.81857,0.3037,0.048531,-0.053495,0.15054,0.55854,-0.46147,-0.94603,1.1452,1.7826,0.91562,-2.7056,-1.099,0.20155,0.73696,0.71153,0.94108,-0.35946,-0.10445,-0.51246,0.3292,0.15047,-0.81864,-1.0226,0.27798,0.78809,-0.79293,0.5332,0.83926,-0.58922,-0.20655,-0.283,-1.3541,0.43106,0.38006,0.048549,0.023035,1.7571,-0.64001,-1.354,0.99228,-0.053451,0.073984,0.2526,0.63517,-0.18098,-0.6912,-0.20653,-0.10451,-0.30854,-0.43611,0.58407,-0.53787,0.35467,0.91567,0.023059,-0.385,0.63511,-1.7111,0.048518,0.63505,0.55849,-0.20651,0.20146,-0.18095,-0.027956,-0.18091,0.50767,-0.30847,0.022919,0.2015,-0.92054,-0.053213,0.15063,0.22696,0.099485,-0.23204,-0.027998,-0.43604,-0.10448,0.40558,0.27805,0.45649,-0.84419,-1.66,0.3546,1.9362,0.1251,0.533,-0.13017,-0.46159,-0.002472,-0.027987,-0.38506,0.12504,0.2526,-0.053378,-0.56342,0.15053,-1.3797,-0.81871,1.5277,0.20153,1.1198,0.58405,-2.4251,-1.048,0.15051,1.4002,-0.15552,0.73706,1.3492,-0.18097,-0.89497,0.074081,0.099552,0.074062,-0.028054,-1.0481,-0.5635,0.25251,0.71164,-0.002454,0.8392,-0.15543,-0.35951,-0.23207,0.53311,0.76258,-2.0936,-0.58902,0.022992,0.17617,0.17606,0.78804,-0.35956,-0.053464,0.55848,0.63517,0.91568,0.58413,-1.9661,-0.81859,0.099399,0.45669,-2.323,1.9869,0.66053,-0.23224,0.099461,-0.89515,0.25257,0.15055,1.2728,0.83919,-2.5016,-0.84411,-0.43609,0.8137,1.2981,0.17606,0.048561,-0.84403,-0.81845,1.0432,0.073917,0.074075,0.40554,0.25254,0.40559,-0.61452,-0.1045,0.048512,-0.46167,0.40558,0.53313,-1.507,0.35459,-0.053421,-0.23202,0.9922,0.12502,-0.2065,0.35456,0.023041,-0.41045,0.55857,-1.7367,-0.20653,1.2981,-0.23191,0.50757,-0.41041,0.4566,-0.33389,0.22705,0.27798,-0.18103,-0.002467,-0.10448,-0.12998,0.048531,-0.30846,0.074081,0.048512,-0.28302,-0.12995,0.5332,-0.94602,-0.028023,1.247,-0.81851,-1.354,0.78815,0.07394,0.91573,0.68598,0.099552,0.023059,0.48206,-1.1501,-1.8896,0.38013,0.50759,0.27806,0.20147,-0.078977,0.074057,-0.027969,-0.23202,0.048549,-0.10446,0.17605,-0.002418,0.099577,-0.13001,-0.027987,0.66057,0.30354,-1.6346,-0.51252,0.99219,0.73716,0.43105,0.81359,-0.51252,-1.4561,-0.81865,0.48205,-0.002534,0.15053,-0.13002,0.20162,-0.30852,0.89021,0.81364,-0.79302,-1.0227,0.9923,-1.6091,0.58413,0.32899,-0.35964,-0.028072,0.35457,0.58408,0.45659,0.176,-0.1299,-0.41034,-0.58894,0.099595,-0.7422,0.073959,0.15052,0.3291,0.099521,0.99207,-0.15545,-1.558,0.17607,0.023023,0.38007,0.7116,-0.002497,-1.3541,0.66048,-1.048,0.2782,1.4769,0.022956,-0.38516,-0.079093,-0.25757,-0.64003,-0.41054,0.63518,-0.51249,0.94128,0.099626,0.27803,-1.9407,0.66047,0.2268,-0.86944,-0.63996,1.885,1.3748,0.15041,-0.10463,-0.43609,-0.23202,0.58403,-0.8695,-1.2266,0.27808,0.35459,-0.15545,0.12516,0.35458,0.63511,0.27805,1.5531,0.12499,-4.0063,-1.8386,1.0687,0.83903,0.25248,1.2982,0.1505,0.9412,1.4257,-0.6144,-1.9405,-0.028029,0.71142,-0.64016,-0.76764,-0.28306,0.38014,0.2526,-0.25731,1.0432,0.60949,-0.18098,-0.10444,0.12504,0.38001,-0.56353,-1.66,0.66063,1.9614,0.048518,-0.28314,0.27793,-0.58904,-1.099,-0.61443,0.91565,0.43097,-0.43604,0.35453,0.81351,1.0433,-0.41048,-0.28296,-0.97153,-0.078886,0.3801,0.25251,-0.2321,-0.38503,-0.23201,0.25257,0.048567,-0.33402,0.58414,-0.69105,-0.33399,0.53314,1.8847,0.30367,-1.099,-0.61462,-0.35962,-0.28305,0.15051,0.99201,-0.71653,-0.79291,0.58414,1.0941,-0.63998,0.66046,-0.43592,-2.5016,3.0581,0.4311,-0.53815,-0.64027,-0.15559,-0.43609,-0.18103,-0.181,0.023017,0.63523,0.99225,-0.86936,-0.33406,-0.35958,-0.02806,0.20153,0.27809,0.12507,0.40561,0.09957,-0.13,-0.20652,-0.41064,0.099534,0.83936,1.3493,0.25267,-2.1193,-1.4817,-0.02809,0.22699,0.43103,0.73712,0.22708,0.023103,0.55856,-0.51246,-0.74196,0.83913,0.30362,0.329,-0.23204,-0.56339,-0.53798,-0.8951,0.1504,0.66055,-0.74208,-0.84401,0.60957,0.68608,1.1707,1.2471,0.83919,-1.1246,1.4767,-1.3286,-1.9917,-0.25753,0.048561,0.55859,0.32908,0.12501,0.15052,-0.15546,-0.20652,-0.15556,-0.41038,0.66058,0.68615,-0.76745,0.91574,-0.002516,-0.15559,0.073965,0.40552,0.22707,-1.5326,0.35468,0.074026,0.53306,-0.33405,-0.15553,1.6552,-0.99704,-2.0425,0.1761,0.7881,1.0431,-0.23202,-0.23201,0.20154,-0.6656,0.20151,0.023054,0.68617,0.48208,-0.99703,-1.4561,-0.13002,0.53312,0.73714,0.048506,0.76261,0.50764,-0.20649,-0.23199,-0.41049,-0.51257,0.074051,0.76257,-0.15548,-1.2011,0.45655,0.992,0.023176,-0.053384,0.12529,-0.283,-0.58914,-0.053592,0.71151,-0.20649,-0.35948,0.99215,-0.25743,-0.15546,0.35458,0.12503,-0.002467,-0.18099,0.43109,-0.46151,-1.15,0.4056,-0.078959,0.099534,0.25257,-1.3796,-0.078972,-0.25753,0.43107,1.2472,-0.078972,0.25258,0.78813,-0.5635,-1.2776,0.91575,0.12501,-0.48711,-0.02792,0.48193,-0.13007,0.60957,-0.15545,-0.61442,-0.18094,-0.10449,0.27806,0.55865,-0.027931,-0.56356,-0.74211,-0.20652,0.63504,1.0432,-0.10442,-0.28305,-0.53796,0.60955,1.1198,0.91566,-0.79313,-0.94617,-0.38509,-0.43608,-0.20658,0.68616,-0.15545,-0.71656,-0.23189,0.22713,0.50762,0.5841,1.4001,0.55853,-1.9406,0.22708,0.99219,-1.8385,0.1251,0.099448,0.30343,0.73696,-0.002662,-0.027901,-1.5835,1.1453,0.38001,-1.4816,-0.28309,0.12507,0.25252,0.48214,0.074051,0.4566,-0.05347,0.048555,0.048561,0.30357,-0.1044,-0.56361,-0.10449,0.60954,-0.25752,0.686,-0.30839,-0.63991,-0.23189,0.43105,0.35443,0.022901,-0.078996,1.3491,1.1707,-2.629,-0.64006,-0.15552,0.76274,0.68608,0.32904,0.25248,-0.078984,-0.20649,0.15056,-0.18101,-0.89502,-0.18094,0.68616,0.58403,-1.2012,-0.30854,-0.86953,0.81362,0.8137,0.25259,0.63504,-0.64014,-1.2777,-0.05358,1.7829,0.48215,-0.41046,0.15058,0.73707,-0.35948,-0.84414,-2.7567,1.4512,-0.69105,-0.10448,1.5022,1.2726,-1.9151,0.073971,0.27805,0.86457,2.0377,-0.43598,-1.9151,-0.46147,-0.18096,0.60959,1.0176,-0.6145,-0.12994,0.66049,-0.56358,-0.25749,-0.30841,0.20154,0.022986,-0.053384,0.17603,0.074062,0.48213,0.048525,0.22706,-0.25753,-0.30856,0.023017,-0.30836,-0.53804,0.073995,-0.002583,-1.5835,0.48206,1.2472,1.2982,-0.027938,-0.79285,0.15048,-0.46164,0.43103,0.27806,0.17608,-0.86947,0.099497,-0.46156,-0.12988,0.12496,1.1962,-0.48692,0.58418,0.66057,-0.46161,-1.3797,-0.79312,0.38005,1.0431,0.04858,0.48206,0.22694,-0.41059,-0.5124,-0.79295,0.50768,0.45661,0.9412,1.0687,-0.12997,-0.66559,-0.2065,-0.76772,0.2526,-0.10449,-0.23211,-0.69105,0.60965
-0.181,0.17606,0.12505,-0.053476,-0.027969,-0.10448,0.074051,-0.12999,-0.027969,0.099559,-0.1555,0.15056,-0.027987,0.048543,0.023041,-0.10447,0.099559,-0.15549,0.17605,-0.10448,-0.18098,0.17606,0.023023,0.099559,-0.053476,-0.027969,0.099552,-0.002461,0.023041,-0.078966,0.099559,-0.078977,0.023029,-0.10447,-0.078972,-0.002467,-0.002472,0.099552,-0.12999,0.099564,-0.20652,0.12505,-0.002467,0.023047,0.023041,-0.078972,0.023047,-0.002467,0.12508,-0.2065,0.15056,-0.10449,0.20158,-0.15549,0.074038,-0.078984,0.023047,0.048536,-0.12998,0.023054,-0.02798,0.15057,0.074038,-0.078977,0.023035,-0.15549,0.023054,-0.12998,0.074051,0.023041,-0.07899,0.074044,-0.12999,0.12506,0.048543,0.074051,-0.12998,-0.2065,0.22707,-0.13,0.023029,0.074038,0.023035,0.099559,-0.10448,-0.053476,-0.078966,-0.053482,0.15056,-0.1045,0.074057,-0.002461,-0.027969,0.09954,-0.02795,0.048549,-0.12999,0.048543,-0.078996,0.099559,-0.10449,0.20158,-0.05347,-0.027974,0.048549,-0.10449,0.17607,-0.15549,0.074044,-0.053476,0.023035,-0.027962,-0.027987,0.22708,-0.078966,-0.027969,-0.002461,-0.027956,-0.05347,0.15057,-0.12999,0.023029,0.023041,-0.027969,0.27809,-0.10449,-0.079002,-0.002461,-0.027962,-0.1045,0.12505,-0.027962,-0.079002,0.048549,0.2271,-0.10449,0.15056,-0.078953,-0.12998,-0.23203,0.17604,-0.18101,0.22707,-0.078977,0.30356,-0.15546,0.023047,-0.10447,0.12505,-0.10449,0.048549,0.023035,0.099559,-0.38505,0.3291,-0.487,0.43108,0.074008,0.32906,-0.15548,-0.053446,-0.053476,-0.3085,-0.25759,-0.38495,0.22711,0.58418,0.17612,0.30352,0.30346,-0.69112,-0.079008,0.074062,-0.18099,-0.002485,-0.1045,-0.35951,0.099601,0.023096,0.074069,0.3036,-0.079033,0.32911,-0.56358,-0.46152,0.048506,0.38006,0.40564,-0.10453,0.43112,-0.5126,0.55859,0.38006,0.35457,-1.201,-1.8896,0.58412,0.22701,0.074002,0.30356,0.27802,0.48203,0.2016,-0.41054,0.20158,-0.18097,-0.078953,-0.53805,-0.027956,-0.35945,0.17608,0.32915,-0.15555,-0.053555,-0.13,-0.35962,0.53311,0.45656,0.58419,-1.303,-0.25743,-0.30843,-0.078996,0.099546,-0.58914,0.66054,0.45652,0.53306,0.73715,-0.12996,0.22721,-0.51254,-0.12999,-0.10445,-0.18097,-0.2065,-0.30847,-0.48704,-0.30855,0.22705,0.023029,0.22703,0.22702,0.15052,-0.078868,-1.201,-0.18092,0.55862,0.71157,1.1707,-0.20661,0.2015,-0.48716,0.25257,-0.46151,-1.5836,-0.41048,-0.48701,0.60958,1.5533,0.73714,-0.41054,-0.53811,0.38004,0.96668,-0.41049,-1.66,-0.81848,-0.053537,0.50754,0.99216,0.5075,0.074013,-0.41044,-0.02795,-0.078972,-0.43603,-0.027974,0.43115,0.58421,0.43115,-0.027962,-0.4871,-0.64016,0.048549,-0.64009,-0.002461,-0.027956,0.20151,0.63508,-0.053427,-0.79301,0.048634,0.43109,0.27803,0.91567,-0.53812,-0.79305,0.38011,0.58405,-0.002412,-0.10454,0.12508,-0.56351,0.023017,-0.436,-0.053476,-0.69096,-0.23202,1.0432,0.074075,0.76265,0.022986,-0.38511,0.20157,-0.18097,-0.46137,-0.20652,0.73697,0.45651,-0.46149,-0.97151,-0.053415,0.15059,0.71156,0.48207,0.40562,-0.181,-0.25753,-0.23203,0.48221,-1.0482,0.40557,0.43107,0.2271,-1.354,-0.89504,0.20157,0.22704,0.50759,0.83911,0.81366,0.30358,-0.20649,-1.0992,-0.51257,-0.079039,0.40556,0.099601,-0.74196,-0.66553,-0.078977,0.55858,0.32907,0.96661,1.0432,-1.3797,-1.8131,1.1452,0.30357,-0.078947,0.96668,-0.028023,-0.10447,0.81364,0.55856,-0.079088,-0.61458,-1.2266,-0.487,0.55875,-0.41056,0.048555,0.27809,1.0942,0.17609,-0.58899,-0.46152,0.32902,1.1962,0.12504,-0.66553,-0.5381,-1.1244,-0.89513,0.99198,0.20154,0.48206,1.6551,1.5022,-0.58897,-1.4559,-1.5325,-0.1301,0.91565,-1.609,0.99213,1.6806,0.6607,0.86453,2.1395,-0.10456,-4.7459,-3.3178,-1.813,1.8337,2.3694,1.4258,1.9103,1.8591,2.6751,-0.81864,-6.0974,-4.1338,0.68586,3.4148,2.1397,-1.1499,-1.6089,1.1196,0.8136,1.2471,0.40552,-0.15553,0.17609,-0.10441,-0.10446,-0.86964,-1.6091,0.0485,1.1451,-4.5927,-1.7621,0.86463,0.63484,1.2725,2.4715,1.4259,1.0178,-0.41057,-0.56356,-0.28297,-0.71661,-0.38511,0.15052,3.6442,-1.7367,-6.1228,-2.272,0.25262,2.2927,2.4712,1.247,0.68599,1.1706,1.2472,0.35462,-0.69099,-0.053286,-0.48704,0.25248,-0.92045,-2.5271,-1.0226,0.40557,0.53302,0.12502,1.0942,0.99216,0.20137,1.7825,-2.1701,-2.7823,2.0124,0.048714,1.9359,0.27804,-0.13024,1.2726,-0.71658,-2.1957,0.86441,-3.5474,-1.15,3.1856,-0.35936,1.3237,1.0687,-0.18106,0.35453,-0.51267,0.099466,-0.92059,-0.69111,-0.41054,-0.33396,0.38019,1.783,0.78832,-0.31033,0.50774,-0.25754,-0.74212,-0.61471,-0.30862,-0.58921,-0.20661,0.22691,-0.1301,-0.38492,0.99235,0.048653,0.71171,-0.1555,-0.51245,0.07402,-0.13009,-0.33387,-0.028018,-0.46156,0.12502,0.38008,0.099588,0.63517,0.37994,-0.232,-0.15542,0.099632,1.2981,-0.079081,-2.0426,-2.4251,0.099479,0.43089,1.1962,0.71171,0.30353,0.89021,0.32903,-0.13002,0.30371,-0.69111,-0.61454,0.17611,-0.002521,-0.10436,0.32905,0.32901,0.27795,-1.4561,-1.5582,1.7063,1.6552,-2.425,-1.3285,0.83903,1.4512,1.1963,0.63503,0.99181,-0.58923,-1.4561,0.43128,0.074222,0.58413,0.68608,1.1706,-3.4454,-3.9299,0.1506,1.0687,0.048195,2.5224,0.66097,-1.2005,2.038,2.3436,-3.9051,-2.2728,0.99205,1.9104,-0.6401,3.2111,-2.0424,-4.7457,0.71168,0.91559,1.094,0.55872,2.2162,-0.94634,-3.6748,-0.38515,1.0943,-3.19,2.9304,1.145,0.17573,2.4205,-0.283,0.074307,-3.5476,-1.7879,-0.12999,2.1653,1.8336,1.0687,0.32925,1.9104,-1.5581,-4.2357,2.1398,-0.71655,-0.76761,-0.23195,2.2417,0.83905,1.3238,0.022925,-0.58913,-2.3491,0.8647,1.2983,2.7519,-2.6802,-3.4708,-0.053689,-0.7673,-4.1338,5.7097,2.1908,-2.8331,2.5739,-2.9607,4.2821,0.073543,-0.84448,0.35431,-1.3795,-0.053397,0.8393,1.2218,-0.89504,-2.2213,-0.6143,-0.2572,1.0944,0.40571,0.12486,0.35422,-0.56367,2.267,-3.2159,-1.6856,0.8392,3.2365,-1.1755,-0.23177,0.048231,-0.23218,-1.1756,1.1962,1.1961,1.1963,0.78828,-2.5266,-0.41031,2.1909,0.15035,-1.1505,-0.97195,1.2469,-1.2267,-1.9662,0.71166,-1.1244,0.61051,1.5788,1.0175,1.2719,-0.13057,1.5278,-2.0682,-2.6546,1.8086,-0.43539,4.5884,0.58377,-0.97209,-1.0483,-0.92056,-0.027871,-0.51257,0.45659,0.4818,-0.71633,-5.001,0.40566,1.7063,0.4565,1.6809,0.43106,1.1705,1.9609,1.2472,-5.0003,-0.76708,-0.5894,0.48165,0.71148,0.94087,3.2361,0.63496,-1.8893,-2.909,0.5077,0.12485,0.32888,-0.028182,-0.18112,-0.35973,0.35438,0.53306,0.049185,1.6049,-0.46136,0.22683,-1.6605,-0.18117,-2.1197,1.1965,0.45659,-0.18089,-0.027993,-0.66557,0.76265,-0.027969,2.0374,1.1199,-5.1793,-0.1551,-0.5634,3.0068,1.1194,0.27778,0.22686,0.048176,2.0633,-3.9299,0.10001,0.60992,1.5787,-1.2777,0.073721,-1.4053,1.6806,-2.2725,-3.8018,-3.7257,2.7266,4.7411,0.37981,1.043,1.0431,-0.33399,-0.385,-0.35964,-0.12992,0.023121,1.2985,-0.078928,-0.43591,-0.92068,-0.56392,-0.8187,-2.7568,1.5532,1.936,-5.6126,0.68597,3.1597,2.3183,0.25252,-0.53812,0.4053,2.1652,-1.2007,0.27862,-0.38492,-0.10474,-0.1813,0.8389,-1.9916,0.58421,0.55825,-3.3175,1.8083,0.023103,0.63493,0.89014,0.50748,-1.1501,0.58427,3.415,-0.69089,0.27804,-0.07899,-1.7622,-1.7878,-0.13014,0.022968,2.4712,-2.859,1.1199,-0.58889,0.94166,0.96657,-0.53823,-0.002534,-0.079093,-1.7623,0.53317,1.6808,1.6808,0.30349,-3.573,0.023225,0.074026,2.344,1.6298,-1.3542,-1.7878,-1.3288,0.48194,3.415,-0.66547,-3.1644,-1.3538,0.78794,1.2979,0.73677,0.17583,0.55859,1.0942,-0.69098,2.1144,-0.33374,-0.61418,-0.15546,-1.7622,-0.6658,1.1195,-0.51256,-2.043,1.5279,-0.4361,2.4972,1.4259,-0.79302,-0.69115,-1.2778,-1.788,1.2214,1.528,2.7521,-3.0624,-2.8842,-0.079259,0.66037,1.2981,1.6298,0.66056,-0.79324,-0.1301,0.099821,1.3494,1.3241,-0.69115,-2.1194,-0.79326,2.216,0.25248,-4.6693,-3.1394,1.4002,2.1913,1.2732,1.5021,2.1906,-0.43638,-0.66585,-1.5583,-1.0992,0.25251,1.9103,-1.456,0.71188,-1.1246,-0.43593,0.91556,-1.2266,-0.81862,0.73714,0.96683,2.9813,0.68627,-2.4765,-1.1245,1.4767,0.91559,1.5279,-2.1451,0.15041,-0.48709,0.71173,-0.92065,-0.56365,-0.74191,0.78835,0.86466,-1.2266,2.5222,-3.3177,0.09951,1.9612,-1.8384,2.4717,2.1142,-0.74233,-0.10458,-0.61479,-0.15562,-0.002558,1.2472,-2.17,-2.6546,1.3491,-0.053384,0.20182,0.8391,0.40553,1.7572,0.22688,-1.456,-3.0118,3.3897,3.1347,-1.0734,-1.6603,-0.30883,-0.9463,-1.6605,0.37984,-0.53795,-2.6802,2.472,3.3133,2.9049,-2.4255,-1.3033,0.022919,-0.002503,-1.2011,0.83906,-1.2266,-0.56353,1.3493,0.50782,1.5025,-2.1956,0.8137,1.4509,-2.1705,-0.76769,0.68602,1.5788,0.27798,-0.38498,-2.7311,-0.28288,1.4764,-0.10494,-0.92017,-0.61392,4.2316,-0.053665,-1.5839,-0.84434,-0.43624,-0.33418,-0.18107,0.71165,-0.20656,-0.895,-0.30839,1.9107,1.4258,-0.9461,-0.46162,-1.0737,-0.79325,0.125,0.25262,0.48205,1.1707,-0.53795,-2.2205,-1.9664,1.1195,1.4765,0.96657,0.073879,-0.51259,-1.0737,0.81365,0.99224,-1.2516,0.17622,-1.4052,-0.43624,0.53298,-0.12995,-1.0734,1.094,0.40547,-1.354,0.50757,-0.10438,1.0177,0.94117,-0.30865,0.048445,-0.028109,2.3694,-0.46136,-1.4561,-0.35953,-0.51262,-0.46165,0.35453,-0.027864,0.63513,-1.3541,-0.66553,-0.61459,-0.25753,0.22708,3.1343,-1.0481,-0.64001,2.3695,0.78821,0.25288,-0.74221,-1.5838,-0.61481,-0.99718,-1.6347,0.96674,2.1143,-1.2521,-2.0682,0.53316,1.7575,2.3187,0.81358,-0.58922,-0.8953,-0.66568,0.3036,0.38006,0.07394,-2.4763,0.50767,0.81375,0.76284,-0.02792,-0.41047,-1.8898,-0.43608,0.55861,0.38005,1.1961,0.55853,0.71162,0.37995,-1.1247,-1.8895,1.5534,1.4262,-0.13013,0.32887,-0.002588,-0.25762,-0.41055,-0.35952,-0.15551,-0.23198,0.2781,-0.23202,-0.86963,0.91597,0.17623,0.83908,-0.6656,-1.1757,0.3035,0.48205,-0.3341,0.63512,-0.18099,0.15056,0.5841,-0.66547,-0.2321,-1.8641,0.9156,-0.66544,1.5788,1.5535,0.4821,-1.0228,-0.58924,-1.0228,0.27811,0.40539,1.579,-4.3632,-0.3337,0.86446,0.50742,0.66054,0.60952,0.86461,0.99226,-1.2521,-0.51244,-0.53806,0.83905,0.32924,0.09973,1.0943,-0.81876,-1.1503,0.63521,0.20154,0.55865,-0.5381,-0.66562,-0.5126,0.50748,0.76258,-2.6036,0.27814,-0.078935,1.4257,0.40559,1.1961,-0.56345,-0.18059,0.86457,-0.028158,-0.97169,-0.35961,-0.28309,0.40552,-0.84411,0.023243,0.5078,1.7573,1.6295,-2.961,-3.6238,1.0431,2.3697,0.76264,-0.028072,-0.33413,-0.028085,-0.1301,-1.2266,-1.1755,1.5533,2.2166,-0.28302,-0.64014,-0.15554,0.45652,-0.81855,-2.859,-0.56348,1.1197,2.3186,1.1709,-0.028231,-0.61472,-1.0226,0.27801,-0.002467,-0.92066,1.1962,0.099588,-0.48706,-1.8896,-0.20641,-0.002338,0.66063,1.0177,0.66047,1.0685,0.15079,-2.1701,0.48233,0.76248,0.15032,0.099301,0.76252,-0.84411,0.38008,-1.9151,0.38025,0.86467,-0.028011,-0.20652,-0.30849,-1.1248,1.4513,1.8081,0.73768,-1.303,-0.13012,-0.28318,0.099369,-0.28313,0.099503,1.4512,-1.5327,-1.2011,-1.2265,1.7574,1.8849,-0.25748,-0.79318,0.3545,0.43107,1.5534,-0.61434,0.17602,0.17589,0.073843,-1.8133,-2.2213,-0.25752,1.1451,1.553,-0.79282,0.12529,-0.20627,-0.41039,0.71153,0.73707,0.60953,0.27795,-0.99716,0.8137,1.2983,0.60977,-1.9152,-2.3999,-0.79312,0.63504,0.68617,0.55858,0.2526,-0.053495,0.1505,-0.20653,0.12513,0.099448,-2.0427,-1.507,2.191,2.5482,-0.30864,-0.028145,0.30331,-1.2519,0.20165,0.35453,-0.89511,0.27795,-0.81862,-0.10457,-0.18093,0.099552,0.17617,-0.89496,1.0433,0.60962,0.45644,0.1505,0.83906,0.55859,-1.3031,-1.2011,-0.12998,0.73709,-0.58896,-0.25732,0.60966,-0.15543,-0.15556,0.50744,-0.56363,0.40573,-0.053495,0.63521,-0.64007,0.073995,-0.20659,-0.20655,-0.002485,0.32905,0.50773,-0.35945,0.50756,-0.18097,-0.79312,0.73712,-0.58883,-0.053255,1.4004,0.6349,-1.8388,-1.4307,0.66056,0.91551,-0.0535,0.40559,-0.15548,0.60956,0.58413,-0.46145,-0.69106,-0.58888,0.25263,0.17605,0.32896,-0.002546,-0.48699,0.55865,-0.3085,-0.94605,0.58405,0.15048,-0.48703,-0.283,-0.027993,0.55848,-0.51252,-0.56344,0.25266,0.89011,-0.74216,0.53317,0.40565,2.1912,0.32909,-0.61471,-0.38515,-0.48719,-2.2469,-1.2521,1.3237,1.3492,-0.94592,-0.71647,0.76257,0.53301,0.78814,-0.94577,2.4205,-0.35956,-0.23206,-1.0992,-0.20666,0.25242,-1.1246,-1.0481,-0.23198,0.09957,1.0432,0.63515,0.38012,0.048536,0.48208,0.023059,-0.33389,0.22707,0.022968,-0.79318,-1.0737,0.30356,1.0433,1.2984,-0.63997,-0.25749,-1.3543,-0.58919,-0.079106,-2.0173,1.5279,1.0432,2.395,-0.53814,-2.1447,-0.86963,0.71163,0.48218,0.83928,0.71179,0.35462,-0.41052,-0.028114,1.1704,-0.56362,-1.7365,0.074033,-1.4561,0.3036,0.45658,1.2727,0.71161,-0.81862,-0.61455,-0.51253,0.89026,0.53335,0.86457,-0.58913,-1.5328,0.53312,0.35459,1.0434,0.176,-0.99722,-0.71671,-0.4615,-1.4051,0.50774,0.89019,0.22706,-0.69108,-0.66551,0.20156,1.7572,0.17611,-1.2011,-0.3341,0.048506,1.7573,0.17602,-1.4306,0.48209,0.048561,1.528,0.45662,0.584,-0.30868,-3.8533,-0.002491,0.6605,-0.15555,-1.1501,-0.46146,1.7317,1.0431,-0.002399,-0.71655,0.07394,-0.15565,0.38008,0.55872,0.68625,0.83914,-0.51248,-2.3487,0.78813,-0.74191,1.0687,-0.63998,-1.0479,0.50738,-0.30866,-0.58925,-0.41064,0.099546,0.48206,1.2473,-1.0225,1.0434,0.27821,0.38003,-0.053506,-0.35956,-0.30864,-0.38511,-2.2211,1.1961,0.58411,-0.97149,-0.81843,-0.56344,0.66055,1.9867,0.78807,-0.81857,1.1452,0.66062,0.048585,-0.18099,-0.51254,-0.28298,-0.71655,-1.4053,-0.053482,0.7373,0.91584,0.66049,-1.3286,-2.4762,0.584,-0.1812,-0.15569,1.6297,2.1398,-1.456,-1.7617,0.78816,0.94118,1.5789,-0.02809,-1.5327,-0.028047,-0.33406,-0.69122,-0.35952,0.17614,0.32913,-0.43606,-0.078996,-0.027938,0.6351,0.25241,0.76272,-2.9861,0.30388,1.2727,0.22686,0.25241,0.30345,0.71144,0.22705,-0.63993,0.048665,0.099595,0.81357,-1.5837,-1.4306,0.2526,1.1963,0.53313,-0.64017,-0.46152,0.71167,0.94119,-0.38504,-1.9918,1.5021,0.15062,-0.43569,-1.0736,0.15039,0.25236,0.38006,1.1196,0.32913,-2.4252,0.22708,0.68612,0.17596,0.25268,0.76275,0.71171,0.76282,-0.23211,-1.8899,-2.6294,0.58414,0.91567,0.073989,-0.079021,-0.078984,-0.35953,0.40559,0.73723,0.58425,0.17615,-0.43597,0.83898,-1.3031,0.329,-1.252,0.5075,1.3236,-0.74187,0.45673,-0.46154,0.35444,-0.053592,-0.25761,0.40557,0.023047,0.27817,-0.25744,0.22713,0.32912,-0.48704,-0.43601,-0.61447,0.43107,0.83917,-0.94616,-1.0226,0.073904,0.048482,0.12507,0.86455,1.3747,-1.2519,-1.0734,1.1707,-0.46162,1.247,-0.20656,-0.46151,-0.4616,0.30352,0.91559,0.35466,-1.303,-0.28278,0.78818,1.1195,-0.66565,-1.6602,0.099448,-0.30848,-0.232,-0.41051,-0.56354,0.45653,0.074118,0.66065,2.548,0.22717,0.27812,-0.66568,-0.99722,-1.2777,0.6351,0.32904,-1.201,0.15064,0.71173,-0.86961,-0.64022,-0.33404,0.60955,0.71166,-0.23196,0.048683,0.53317,0.6861,-0.43604,-0.53817,-0.53811,0.12506,0.68608,-0.69105,1.6041,-0.81848,-2.5781,0.45665,1.0431,1.1451,0.68603,-0.56365,-0.92054,-0.51248,0.91571,0.12496,1.0175,-0.94598,-1.7366,1.0435,0.12489,-0.02809,0.63499,-0.7166,-0.81854,0.17598,-0.35954,-0.10452,0.83922,0.83926,-0.30837,0.94131,-0.81865,-0.43619,-0.66559,0.099595,1.2216,0.68601,-2.5016,0.074106,0.76263,-0.053451,0.53302,0.71144,-0.10454,-0.30847,0.45669,0.15052,0.30368,-0.69098,1.1963,-0.56354,-0.46165,-0.66566,-1.1245,0.68608,0.96652,-0.28295,-0.56344,0.7626,0.53304,-0.76752,-0.48699,-0.10442,0.25251,0.50761,0.2781,0.66058,-0.079014,-0.66544,0.30368,0.37999,0.55844,-0.58924,-2.1447,0.27817,0.38017,0.35462,0.07402,0.40558,-0.51252,-0.33399,0.43112,-0.35957,0.32906,0.60957,-0.61454,0.22717,-0.02798,-1.1499,0.91579,0.76253,-0.56369,0.048366,0.30352,-0.12999,-0.33396,-0.56358,-0.61447,0.6096,0.30364,0.20164,0.35466,0.25256,-0.436,0.91555,-0.63995,-1.2777,0.7627,-1.4305,0.91561,1.094,-1.2777,-1.4561,0.96664,1.1452,-0.002363,0.38005,-0.053544,-0.078996,0.12509,-0.05347,-0.48718,0.96676,-1.3795,0.09973,0.53321,0.099418,-0.028114,-0.41064,0.20159,0.27815,-0.48706,-0.23204,0.12507,1.1196,-0.20645,-1.0225,-0.43603,-0.94598,0.53298,1.3492,0.91562,1.0433,0.27805,-0.74215,-0.41059,-0.46157,-1.303,0.45657,-0.94606,-0.15534,0.66064,0.78818,0.50755,0.71165,-0.18107,0.22693,-0.38499,-1.2266,-0.33393,0.53314,0.27808,2.0378,-0.81866,-0.6655,-0.002558,-0.61457,0.32899,0.86459,0.5587,-2.3741,0.58409,0.22707,0.50764,-0.028018,0.25259,-0.28303,-0.38505,0.22717,0.63507,0.099521,-0.1044,0.83909,-1.3542,-1.3031,0.88997,1.5787,-3.1136,-2.0681,0.7625,1.0431,1.3237,1.8082,0.50761,0.15054,-0.97154,-0.10452,-0.43607,-0.38499,-0.74204,-0.23193,-0.41054,1.4514,0.91575,0.176,0.38001,-1.5837,-1.3797,-0.1555,-0.028023,0.32907,0.68621,-0.69127,0.86483,0.91557,1.6811,-1.8131,0.27785,0.45646,-0.84409,-1.1245,1.0176,-0.10451,-2.5782,0.35461,1.2727,1.5022,1.4001,0.12517,-0.35946,-0.84403,-1.2777,-0.71664,-0.28306,0.329,0.43117,-0.3594,0.66067,-0.46171,-0.76773,-0.20639,0.89027,0.83929,0.68611,0.30352,-0.3595,-1.099,-0.41058,0.20139,1.2981,-0.43593,-0.58889,-0.41061,0.5076,0.43104,-0.20652,-0.51252,0.22707,0.81353,-1.7621,-0.38491,0.40565,0.96681,0.32905,-0.18111,0.22694,0.55859,0.40566,-0.18095,-0.92072,-0.5891,-0.38492,1.0942,-0.35942,-1.3285,-0.51269,-0.6147,0.12521,1.3238,1.5278,0.482,-0.25761,-0.66563,-0.28307,0.55869,0.22711,0.12513,-0.002381,-0.2831,-0.35961,0.1506,0.023072,-1.7365,-0.74192,0.40544,1.2725,0.68596,-0.61457,0.4311,0.15056,1.0432,-0.28303,0.099473,-1.0225,-1.5835,1.4513,0.023041,0.40549,0.4055,-0.027956,0.38003,-0.33398,0.15058,0.048567,0.48201,-0.25752,-0.61458,0.35464,0.099626,-0.30844,-0.25773,0.023059,0.8901,-0.002173,-0.46151,0.38011,-0.61467,-0.35965,-0.43611,0.96663,-1.201,-0.30849,0.86466,0.58399,0.86465,0.60964,-0.89494,0.17607,-0.15551,0.125,0.43105,-1.8386,-0.8185,0.6862,0.048438,0.76266,-0.23198,0.20159,0.12507,-0.81867,-0.3851,-0.56365,0.32908,0.71163,1.6808,-0.92048,-1.099,-1.3285,0.45661,0.86454,0.73708,0.89011,0.86459,-0.078947,-0.46154,0.25246,-1.5581,-0.99704,0.074124,0.58423,0.76263,0.30355,0.48201,-0.48705,-0.23201,-0.13002,0.83925,0.27813,-0.53814,-0.86969,-0.51262,0.17613,0.40558,0.94115,-0.3338,-0.33401,0.71157,-1.4562,-0.46152,0.38006,0.99215,0.27812,0.023059,0.27798,-0.3595,0.15055,0.50765,0.074062,-0.053513,-0.71648,0.2015,-1.2266,-0.66551,0.86455,-0.25755,-1.048,0.76264,1.9104,-0.18112,-1.15,-0.078928,0.30352,0.25251,0.30355,0.278,0.25254,-1.0224,-0.35941,0.07394,0.15049,0.32912,-0.92053,0.58415,0.048536,0.38012,-0.002356,-0.33405,-0.35957,-0.30856,-0.28309,0.3036,-0.38511,0.73729,0.35465,0.35448,-0.41061,-1.2011,0.53312,1.5787,-2.4506,-0.15555,-0.43603,0.89013,1.0431,0.48204,0.22721,-0.56361,-1.4562,0.48212,1.3238,0.89025,-0.4871,-0.76766,-0.76766,-0.41058,-0.41057,-0.844,1.1197,-0.46145,0.27809,0.20149,-0.2321,-0.053495,-0.10448,-0.1043,1.1453,0.73714,-0.69105,-0.43616,-0.23208,-1.0989,0.83931,-0.28308,-0.46167,0.27805,0.40558,0.22699,-0.61453,0.35451,-0.76755,0.023206,0.71168,0.8137,0.66072,-0.25753,-0.28309,-0.23204,-0.13,-0.23201,-1.0991,-0.28303,0.60958,1.9868,-0.46141,-2.5526,-0.2575,0.73702,0.91538,1.5021,0.89016,-0.33401,-0.41047,0.048598,-0.23194,-0.30843,-0.10443,-0.10444,-0.8696,-0.13004,0.023041,-0.43599,0.099521,0.048567,0.35442,1.2471,0.53307,-0.61423,0.45666,-1.8387,-0.71666,-0.053525,0.76257,0.48204,-0.18096,-0.053525,-0.28302,0.3036,0.3036,-0.10445,0.58405,-0.53789,-2.4507,0.66072,0.89023,0.71165,-0.053525,-0.41066,-0.10461,-0.30855,-0.79313,-0.232,0.048555,1.3237,-0.23188,-0.027993,0.89018,-0.74204,-1.4561,-0.53802,0.68608,-0.74203,0.71158,0.6606,0.71154,0.30352,-0.30845,0.35456,-0.30849,-0.10447,-0.20644,0.22712,-0.89495,0.30358,-0.18114,-0.99719,0.35463,0.22704,-0.46147,-0.20663,-0.46154,-0.89489,0.40555,0.35452,0.96662,0.45657,-0.079008,0.53314,0.55862,-0.48685,0.35475,-0.92064,-0.3086,-0.13005,-0.23208,-0.38508,0.048543,-0.13002,-0.15546,0.22721,0.5586,-0.81854,0.38002,-0.053446,-0.10442,0.73712,0.30355,0.63504,0.55854,-1.3031,-1.2775,-0.078953,1.3492,0.22701,-0.99713,-0.00254,-0.56358,0.55862,0.15051,0.89016,0.20166,-0.53793,0.12505,0.32896,-1.6345,-1.5581,0.40561,0.788,-0.00265,-0.18106,-0.10438,0.17619,-0.12992,0.27792,0.60969,0.91571,1.2218,-0.51262,-1.3541,-0.9972,0.55858,-0.89504,-0.84409,1.1963,0.15057,0.55863,0.32905,-0.51264,0.17598,-0.61454,-0.94608,0.30361,0.43111,0.99223,-0.38499,-0.487,0.17604,0.25254,0.60958,-0.027987,-0.69101,0.76263,-0.1554,-0.15552,-0.2576,-0.23204,0.50782,-0.28311,0.68606,-0.232,-0.2064,-0.078966,-0.38506,-0.38513,-0.69117,-0.07899,0.20159,1.1965,0.71162,-0.48714,-0.283,0.40563,0.50779,-0.12988,-0.66575,-0.15563,-0.23205,0.099552,0.22708,0.023059,-0.23202,-0.002461,-0.002412,1.4001,-0.41046,-2.9096,1.1706,0.60955,0.35455,0.40557,-0.10447,-0.20654,-0.078953,0.35454,-0.20647,-0.89504,0.048494,-0.25748,-0.30849,0.32906,-0.61451,2.0379,-0.002534,0.074087,-0.027974,0.17603,0.71148,-2.0172,-1.5837,0.25258,0.89013,0.15052,0.023072,0.66061,1.2218,-0.28289,0.27805,0.15052,-1.5327,-0.18099,-0.2321,0.2781,0.94114,0.20163,-0.8695,-0.12996,0.40569,0.2526,-0.25759,-0.18111,0.12503,0.048561,1.2217,-0.41046,-0.38506,0.50756,-2.7056,0.22704,1.6297,-0.002448,0.35464,0.32899,-0.13004,-0.002491,0.50768,0.27815,0.048518,-0.46155,-0.69102,-0.5635,0.38003,-0.43602,0.12502,0.32913,0.3802,0.1506,-0.20658,-0.20662,-0.079021,-0.94622,-0.078996,0.60968,0.25272,0.22709,-0.079002,0.45649,0.35456,-1.4051,-0.30838,-0.12987,0.45668,0.55857,0.71151,-0.002558,-0.053531,-0.028018,-0.1045,-0.8186,0.074044,0.43108,-1.048,0.27828,1.0432,0.20156,-0.61454,0.12496,-0.18104,-0.181,-0.10452,0.35456,0.48209,0.6351,-0.97156,-1.405,-1.1245,0.63515,1.2472,1.0941,-0.13007,-0.23203,0.176,-0.84408,-0.13001,0.023047,-0.10447,0.074033,-0.74194,-0.4615,1.0688,-0.0535,-0.00243,0.12501,0.53307,-0.43603,-0.33405,0.176,-0.10452,0.58407,-0.18102,-0.6655,0.023139,0.1251,1.5533,1.0686,-2.0936,-2.9863,0.45651,1.0432,1.3747,0.94121,-0.25758,-0.20652,-0.76754,1.0177,0.12505,0.38014,-0.84408,-0.18101,-0.51257,0.3035,-1.1501,-0.56345,0.78824,0.40576,0.6606,0.60944,0.73712,-0.38502,-0.18099,-0.48714,-0.181,0.15054,-0.74216,-0.078928,-0.43593,-0.64003,0.6352,0.78821,0.63513,0.7372,-0.53812,-0.41061,-0.02795,1.0941,-0.20649,-1.4306,-0.18103,-0.181,-0.20661,0.048482,0.78819,0.55867,0.71175,0.27794,-0.64011,-1.4561,0.32912,0.7881,-0.027998,-0.28302,0.048536,-0.25751,-0.48703,0.6351,0.12509,0.20158,0.53308,0.20155,-0.30846,-1.2776,-0.30854,-0.002503,0.6351,0.73725,0.12501,-0.33411,-0.41042,-0.10452,1.1197,-0.56352,-0.76763,-0.25755,-0.94609,0.38009,0.3546,0.38014,0.22707,0.17595,-0.18101,0.048585,0.30362,-0.84397,0.048604,1.0431,0.3291,-0.20652,-0.43607,0.53308,-0.97161,-1.3541,0.55862,0.53317,0.53315,-0.079075,-0.25758,-0.10452,0.99216,-0.94595,-0.28289,0.32895,-0.25752,0.15056,0.32907,0.25256,0.53314,-0.81851,-1.0481,-0.028085,0.43107,0.38013,0.68616,0.8393,0.17605,-0.64015,-1.7113,0.099454,0.073971,0.3291,-0.12981,0.50773,0.32905,0.17601,-0.13001,0.53306,-1.1757,-0.20647,0.53315,-0.43595,0.78817,-0.35957,-0.18106,-0.027938,0.50764,1.2727,-1.0227,-2.2977,0.12509,0.55862,0.50756,0.074057,0.50765,0.35454,-0.13,-0.078996,0.40555,0.15055,-0.63992,0.074087,-0.25754,-0.58901,0.45659,-0.43602,-0.15545,0.55852,0.58405,0.45668,-0.30844,-0.69105,-0.13006,0.25249,0.55863,0.023005,0.4056,-0.41049,-0.92049,-0.79304,0.20158,0.43108,0.099552,-0.002503,0.78821,0.074051,0.27811,-0.028005,-0.23203,-0.46159,-0.18108,-0.5381,0.3036,0.20168,0.40568,-0.38495,0.22697,-0.38508,0.81364,-0.94608,-0.1555,0.38001,-0.028005,-0.30843,0.8136,0.7372,0.17616,-0.10456,-0.053513,0.30349,-0.25746,-0.027882,-0.053439,-0.64012,-0.46153,0.20155,0.83923,-0.89502,-0.053544,-0.23208,0.15051,0.12504,-0.20656,0.32912,0.12508,0.20161,-0.02798,0.71163,-0.079051,-0.92052,-0.15553,-0.81848,-0.078966,0.1251,0.32896,1.3238,-0.23197,-0.38515,-0.002497,-0.33394,0.60969,0.12503,-0.15559,0.12503,-0.23193,-0.28293,-0.53808,0.20156,0.45653,-0.2321,-0.76747,-0.23197,0.5076,1.1198,0.73704,0.048518,-1.4561,0.78808,-0.41045,-1.3541,-0.13002,1.7062,-0.027956,-0.15547,-0.10452,-0.25754,0.66065,0.1251,0.22717,-0.20648,-0.35952,-0.41057,-0.25754,0.023065,0.4822,-0.18105,0.074057,-0.43612,0.02295,0.38009,0.43121,0.55871,0.32908,0.023065,-0.94614,0.15057,-0.56354,-0.79308,0.81351,0.63505,-1.7621,-0.9969,1.6552,1.3493,0.25251,-0.053513,-0.15553,-0.94611,-0.20652,0.48219,-0.002443,-0.18106,-0.41049,-0.64005,0.099521,0.58408,-0.20656,-1.15,0.55862,-0.15534,0.55862,0.99206,-0.66562,0.074111,0.55869,0.27806,-0.13002,-0.43606,-0.94616,0.074093,0.074093,0.27808,0.099528,0.073965,0.58408,-1.6091,-0.20646,0.45653,-0.76756,0.50768,0.30355,0.073898,0.22702,1.1199,0.38007,-0.23198,-0.69105,-0.33404,-0.41054,-0.10449,-0.027993,-0.12999,-0.48705,0.68613,0.2781,-0.30849,-0.86961,0.22707,0.94117,-0.51248,0.7116,0.94104,-1.099,-1.2522,-0.002503,0.15054,0.96677,0.074062,0.15051,0.43117,0.12502,-0.56358,-0.48702,-0.027956,0.048573,0.15052,0.023084,0.09954,-0.15549,-0.10453,-0.53809,-0.51245,0.78807,0.27808,-0.20644,0.25266,0.27809,-0.23214,0.099466,0.63523,-0.30842,-0.12997,-0.48714,-0.35959,0.43111,0.074142,0.15067,-0.002461,0.12496,-0.18103,-0.28301,-0.35954,0.30357,0.074051,-0.86946,-0.25745,0.40562,0.86463,-0.35954,0.43104,-0.1555,0.048561,0.50753,0.15061,-1.2011,-0.66565,0.30368,0.58417,0.278,-0.46154,0.53309,0.15055,0.15076,-0.053506,-0.28312,-1.4817,-0.23205,0.99221,-0.23195,0.15056,0.17599,0.38009,-0.23206,0.20162,0.074038,-0.23201,0.38013,-0.538,-0.53796,0.40556,0.15046,-0.079033,-1.5582,0.38008,1.0177,-0.58887,0.12509,0.32899,0.048482,0.20151,0.38003,0.3291,-0.13001,-0.12998,-0.02792,0.27806,-0.48695,-0.33391,-1.5072,0.2526,0.71162,-0.079039,-0.18108,0.78822,0.40558,0.2016,-0.43604,-0.25752,-0.027974,0.30353,-0.38508,-0.71654,-0.33401,0.96668,0.27809,0.099528,-0.589,0.048543,0.76266,-0.12994,-0.002461,0.25255,-0.079026,0.32908,-0.028011,0.3546,-0.46159,-0.10449,-1.0991,-0.25751,0.22701,1.0177,-0.12998,-0.002363,0.71158,0.3547,-0.20642,-0.18108,-0.23204,-0.20653,0.073984,-0.69097,-0.13001,0.86449,-0.76747,-0.81842,0.1251,0.71166
-0.15549,-0.05347,-0.078977,-0.02798,0.3036,-0.002472,0.023041,-0.002461,-0.18099,0.12506,-0.05347,-0.28303,0.12505,-0.07899,0.048549,0.22706,-0.12999,0.023047,-0.05347,0.023065,-0.027987,0.074044,-0.053464,-0.23198,0.12504,0.048543,-0.027998,0.023065,-0.10449,0.048549,0.07402,-0.18095,-0.027987,0.17604,0.074033,0.074069,-0.053488,-0.078953,-0.027969,-0.002479,-0.10449,0.12505,-0.181,0.12505,-0.027974,0.20156,0.023023,-0.078966,0.099559,-0.1555,0.023035,-0.002472,-0.12999,0.074051,0.12505,-0.027969,0.17607,-0.15551,0.048567,-0.002479,-0.30852,0.12505,0.023041,-0.20647,0.22707,0.048555,0.023023,-0.002472,-0.002461,-0.078972,-0.053464,0.09954,-0.15551,-0.078972,0.17607,0.22707,0.074033,-0.18099,-0.20647,0.17604,-0.027969,-0.12999,-0.15548,0.023035,-0.002472,0.023047,0.20157,-0.12999,0.15057,-0.2065,-0.053476,-0.02798,0.099552,-0.02798,-0.05347,0.099564,0.023035,-0.002461,-0.12998,-0.002472,-0.002454,-0.002479,-0.002467,-0.10449,-0.13,0.12508,0.12506,0.048555,0.048525,-0.15551,0.023023,-0.10445,-0.15549,-0.027969,0.17606,0.048555,0.074044,0.048531,-0.002436,-0.002472,0.074057,-0.078977,-0.053464,-0.15548,-0.15549,0.074026,0.30356,-0.027969,-0.027944,-0.232,0.048549,-0.15549,0.023047,-0.079002,0.074051,-0.002472,0.048549,0.12506,-0.027969,0.023035,-0.053476,-0.027956,0.048536,-0.15549,0.09957,-0.027987,0.12504,-0.23197,-0.20645,0.22707,-0.079039,-0.053495,0.30358,0.023035,0.2016,0.32917,-0.027969,-0.18101,-0.30852,-0.18102,0.2526,-0.13001,-0.61458,-0.64004,-0.079026,0.074008,0.86465,0.43108,0.27812,-0.20648,-0.51243,-0.053488,-0.33396,0.09954,0.25255,0.63506,0.40553,-0.10442,-0.53804,0.15056,0.12504,0.048536,0.09954,0.074026,-0.027956,-0.56352,-0.46146,-0.25754,0.048525,0.58414,0.15057,-0.10445,-0.25748,-0.10453,0.91554,0.43107,-0.71649,-0.86944,-0.35959,0.66053,-0.20654,-0.25741,0.5331,1.0177,1.3748,1.0941,-0.002565,-1.5836,-3.4708,-0.69102,0.50755,0.40561,-0.002534,0.17598,1.0177,0.35447,1.2727,0.30356,-0.71651,-0.84395,0.5332,0.02309,0.53319,-0.028011,-0.23205,-0.28304,-0.43609,-0.2065,-0.71659,-0.30856,0.25257,0.20161,0.96672,0.94106,0.78808,-1.7876,-1.6601,-0.078917,1.6297,0.89002,-0.71656,-0.30842,0.58413,0.76266,0.27802,0.20148,-0.10451,-0.25751,-0.33394,-0.2574,-0.25753,-0.1045,-0.38499,-0.81862,-0.61457,0.20155,1.0176,0.43104,-0.51246,0.83922,-1.3795,-0.15552,2.038,1.0176,0.7626,-1.15,-1.8642,0.2524,-0.028139,-0.64014,-0.51265,0.048585,0.76285,0.48219,1.0943,0.25256,-0.15545,0.20166,-1.7368,-0.46159,-0.51265,0.022961,0.099485,0.20159,-0.10447,1.1197,0.58419,-0.66546,1.834,-0.43615,-0.43602,-0.6656,-0.53813,0.073984,0.27808,-0.23198,-0.23193,-0.38506,1.0175,0.38015,-0.25737,0.63521,-0.15548,0.20166,-0.76765,-0.56363,-0.002461,0.48218,0.53304,0.96653,0.30366,-2.119,-1.4052,0.55832,0.20134,-1.2012,0.91581,-0.61462,1.936,1.8338,-0.053427,-1.0225,-1.2012,1.0431,0.45653,-0.84403,-2.7059,-0.56359,1.936,0.76264,1.9613,-0.18109,-2.2723,-0.92045,-0.48689,-0.1812,0.40556,1.4767,0.86467,-0.56362,0.022931,0.048329,-1.4054,0.81392,0.55884,1.8593,1.1964,-1.3285,-2.757,-1.6858,-0.53829,0.048347,0.91553,1.4768,2.2674,-0.33406,-2.2978,-1.1754,1.885,0.83908,2.0636,0.73693,-2.2721,-0.92059,-2.7568,1.8081,-0.48719,-0.41054,1.6298,-0.53828,1.1709,-0.4615,2.4718,-0.64015,0.88982,-2.1448,-2.2215,-1.1502,-0.89477,-0.74209,1.4516,1.1196,1.783,-1.2776,0.68609,2.0632,1.2213,-1.5323,-2.8844,0.78799,-0.07913,0.20141,-2.6801,0.99211,2.0378,-2.4762,1.0431,0.074222,-2.2466,0.35448,0.71157,3.4153,2.3184,0.73735,-0.6148,-3.1651,-4.3126,-1.2015,2.2673,0.91554,1.9359,-0.43593,1.6298,-6.8628,0.78827,1.9358,5.9912,2.5734,-0.89535,-3.777,-4.2871,2.1141,1.0431,2.3185,-1.0993,1.4,-3.9805,-0.56267,1.5022,-2.4763,0.45629,2.7262,0.76266,0.32889,-0.23204,-1.4309,-0.028207,4.5884,-6.888,-0.027467,3.2872,1.0434,-0.38523,-0.3598,-1.9155,0.71148,1.6556,4.0781,2.3441,-7.5258,-4.2616,-0.76748,1.9357,3.4662,4.2309,0.50732,-4.3125,-2.5783,0.94112,1.9359,2.0378,0.8646,0.20156,-4.0574,0.58403,-0.94612,2.497,1.0688,0.53313,0.99227,-0.94623,-0.89528,-1.3033,-1.6858,-1.7368,2.8797,4.0784,-0.12992,-2.5019,0.73701,-7.0413,1.7315,0.6096,2.9566,3.364,-2.1959,-1.4821,-1.4308,1.0177,0.91552,0.89013,0.099626,-0.71636,0.94126,-0.28318,0.86477,-4.1866,0.73524,0.1742,1.5003,0.63493,0.32965,-2.3232,4.9962,0.30314,-4.5676,1.1958,-0.38532,-1.9407,1.4513,3.4151,0.68627,-3.292,1.2472,-1.9664,0.22688,2.6753,-3.5221,0.12519,0.023181,-0.84356,2.4459,1.5275,-0.79334,0.099399,-0.66603,2.0887,-1.4305,-0.001855,1.3492,-2.7568,-1.7112,0.68598,2.2416,-1.201,-0.33405,0.78793,0.91593,-0.66555,-0.89487,0.099521,2.9558,-1.3799,-1.4815,-1.8898,-0.027956,0.71149,1.9357,1.4767,-2.0683,-2.3995,2.6244,0.023359,1.6042,-0.5382,-3.9811,0.63527,1.4767,-0.6404,-0.41066,0.099601,1.5022,0.30403,0.20153,0.60946,-1.8132,-0.94616,-0.53812,1.0429,-1.3793,-1.2007,1.7576,2.2418,0.022595,-0.002784,-0.23207,2.2416,0.35445,-3.9551,-3.8789,1.8341,2.5225,4.053,0.048347,-1.4565,-1.2523,0.40547,2.1906,-4.9245,-0.99677,0.68634,0.43107,-0.20657,0.43106,1.3492,0.71161,0.30357,-0.053684,4.2564,-3.8277,-2.4501,0.81351,0.2525,-0.15573,0.12488,0.68603,0.60933,-0.56345,-0.43572,0.40532,-1.8131,0.83914,1.0433,1.63,0.15041,0.25243,-0.2831,-1.3288,-2.5784,-1.3282,2.8543,1.2476,-0.79331,0.58366,0.43085,-0.30864,-0.079081,1.6551,-0.691,-3.2667,2.6503,1.2729,-0.20658,-0.64013,-0.30859,-0.20658,0.66031,-1.8896,-0.71617,3.007,-1.2519,-0.99732,-1.2523,-0.002705,0.94117,1.9612,0.15013,-1.7619,-1.4816,3.1349,1.6553,0.25236,-0.027993,-1.2267,-0.61465,-0.71658,-2.2214,-1.7364,2.089,1.3745,1.0431,0.71163,1.0176,0.76269,-1.0481,-1.048,0.27799,1.5021,-3.4709,-1.8897,0.20141,1.1963,1.3237,0.89006,-0.35964,-2.5018,0.40566,3.3898,0.83928,-0.12999,-0.56385,-1.2268,-0.48711,-0.69125,0.68606,-1.2264,0.71214,2.1909,0.30326,-3.2158,-0.18092,0.45658,0.176,-0.41077,0.40546,2.2674,3.0582,0.35494,-1.8389,-1.6857,-1.3544,-0.43616,-0.028018,1.6042,-1.252,-3.0372,1.9102,2.0123,1.7574,0.32902,-0.84406,1.3491,-2.0427,-2.0171,0.023023,0.76274,0.99215,0.20142,0.20149,-1.0736,0.91566,-0.6147,0.074209,1.0178,0.20158,-0.8444,0.32902,-2.5526,0.66118,0.71148,-0.38537,0.81362,-0.38511,0.94102,0.58405,-1.099,0.32914,-0.99704,-0.002112,2.0888,-1.8644,0.68616,-0.027962,1.3237,0.83912,-0.8442,-0.69117,-0.97162,-1.2776,-0.15546,0.6352,0.15066,0.99235,-0.053709,0.32898,-0.10455,-0.30824,0.89036,0.38002,0.20146,-0.053611,-1.4307,0.53311,-0.12996,-0.13008,0.27804,0.22706,0.048585,0.27803,0.12495,0.78796,-0.3337,-2.0934,1.1709,-0.81872,0.55857,0.17586,-0.02809,0.12502,-0.74215,-0.30848,0.68606,-0.30856,0.048561,-2.068,1.5024,2.1655,0.99215,-1.3031,0.25253,0.30336,-1.1758,0.78804,0.02317,-0.74215,0.45654,-1.1247,-0.74198,-0.23188,1.6044,2.0378,-0.15553,-2.8076,-0.94613,0.94098,1.5786,1.4511,-0.84393,-1.1245,1.4256,-0.66561,0.074013,-1.6091,-1.4562,2.2674,1.4768,0.99218,0.45647,0.83899,-1.9662,-1.6601,0.022992,-0.43596,0.50757,0.3289,0.73718,-1.0735,-0.053464,0.099491,-0.002485,1.3494,-0.25754,1.3495,0.099559,0.17602,-0.66558,-1.3288,-0.84413,0.227,-0.64007,-0.76761,-0.89522,2.3951,-0.51218,2.1399,1.6551,-1.0992,-3.5729,0.71146,0.12489,1.4512,-1.5326,2.0635,0.94115,-0.53811,-0.74221,-0.23204,-0.38498,0.25255,-0.53796,-0.48697,-1.4306,1.4002,-1.3031,1.6809,0.43099,0.60948,-0.61454,0.20164,-0.66561,0.38001,0.074044,0.78814,-0.487,-1.8132,1.7064,0.9156,-0.58914,-0.86963,-0.56358,-0.13005,-0.053415,0.50747,1.2216,-4.0826,-1.0733,2.7008,1.4765,1.1961,-0.30861,0.32899,0.96663,-2.1191,-1.4562,0.89016,2.1653,0.94141,-2.5272,-0.56368,0.22693,0.099454,0.27806,0.22716,-0.3341,0.35456,0.048494,0.83937,0.023108,-1.2776,0.3544,-0.1301,-2.0681,0.66062,0.96663,-0.895,1.5786,0.12516,-1.4051,0.58421,1.5278,0.25257,-0.33421,0.099418,-1.3031,-1.3795,0.12499,0.839,-0.30847,-1.4049,1.6552,-1.7876,-1.3543,0.17602,-1.1497,5.0473,1.6296,0.60938,-0.002637,-0.66566,-0.58913,-1.9916,-1.7875,0.83914,0.07394,1.4003,-0.23188,-0.43593,-0.76763,-0.33416,0.66046,-0.81851,0.68621,0.94117,0.022894,0.55867,0.48215,0.32907,0.58414,-3.0375,0.76272,0.48212,0.83925,0.099485,-0.33409,0.25248,-1.4816,-1.1755,-0.20655,-0.33394,0.96657,0.89004,0.48206,1.5278,1.5278,-1.4306,-2.6037,0.3034,-0.23188,-0.15531,0.27791,-0.74201,0.27791,-0.20656,-1.4816,1.3237,1.9866,-0.46159,-0.027626,-0.69099,0.7119,0.50754,-0.51272,-0.58917,-0.43609,0.02298,-0.13001,-0.64013,1.3747,0.099479,-2.0424,-1.3794,1.5279,0.86474,0.25234,-0.002625,-0.079179,0.15057,0.099632,0.76275,0.66062,-0.97165,-0.69112,-1.6091,-1.4051,0.63517,1.0687,0.1506,1.1451,2.905,-2.7057,-0.33391,-0.027987,-0.79318,0.71137,0.15049,-0.38502,1.3491,0.32918,-1.048,-0.69092,0.35456,1.1963,0.81356,0.20141,-0.10449,-0.43595,-1.3542,0.48214,0.3801,1.2983,-0.64009,-1.2777,-0.74215,-0.23204,1.6296,-0.74199,-0.74196,-0.078874,0.60968,1.9103,0.022974,-0.538,-0.18104,-0.028042,0.76258,-0.35956,-0.002479,-1.8895,-0.51254,1.1706,-0.10454,0.78823,-0.053384,2.0124,-0.74217,-1.4306,1.1196,-0.053531,-0.18103,-0.053476,-0.33394,1.5788,-2.5272,-0.13,0.55837,-1.2265,-2.2211,1.9613,1.8593,-0.053714,1.1452,0.17603,-0.53801,-0.28298,0.099546,0.27812,0.22697,-0.94611,-3.4199,1.0432,0.3545,1.3493,1.8339,0.32908,-0.053519,-0.46162,-0.58911,-0.35954,-0.35953,0.09954,0.35473,-0.538,0.83914,-0.028005,-0.25748,0.022925,-1.201,-0.61455,0.91586,0.15042,0.048427,0.68622,1.6297,0.40553,-1.0991,-1.3286,0.32895,-0.38519,-1.3285,0.66063,1.0942,-0.28289,-1.8131,-0.3851,0.53309,0.2781,0.66058,0.43087,-0.13007,-0.30846,0.38025,-0.63988,-0.64002,0.17597,1.0686,-1.2775,0.20146,1.1197,0.023035,0.96674,0.17606,-1.4564,-1.8132,1.6042,0.96677,-0.53774,-0.56352,-0.92069,0.25247,-0.9716,-0.30836,1.9103,0.43104,0.86438,0.099528,-1.2775,-0.12993,1.1708,-0.385,1.2472,-1.0992,-1.9407,-0.48702,1.8593,1.5277,-0.71637,-0.69108,-1.1757,0.839,0.71149,-0.28321,0.20163,-0.79307,1.0942,0.96685,0.55889,0.023059,-1.4817,1.5019,-4.6949,-3.5728,3.0832,0.63509,0.073959,1.8592,0.4056,1.5533,-0.028011,0.58408,0.048494,-3.037,0.27812,2.0123,-0.30843,-0.48727,-1.6347,-3.4452,2.1906,1.6553,-0.28297,1.2216,0.86461,-2.2721,-0.25744,0.89011,0.38012,1.0432,-0.64004,0.1251,1.0432,0.38016,-0.64013,-0.30866,-2.6549,-0.30841,0.35461,0.68617,1.9614,0.35451,0.96657,-0.61455,-0.76752,0.30356,-0.12999,0.12509,-1.8896,-0.94627,1.4513,3.262,1.5023,-1.0225,-0.18108,-0.89522,0.20136,-0.97169,-1.099,-1.5836,1.1963,0.94121,-0.89495,0.7115,0.25242,0.32899,-0.79294,0.76261,0.35456,-1.3796,0.22718,2.3438,-0.79299,-1.7366,1.298,0.2524,-1.7367,-0.053439,0.25254,1.3494,1.1962,0.22693,-1.5072,-1.3797,0.099644,0.78826,0.7117,-0.66562,-0.5126,0.73704,-0.81854,-0.35945,1.2726,1.3238,-0.10435,-0.078966,-0.71657,-2.1703,0.048438,0.43108,0.48228,2.2166,0.45656,-0.20666,-0.74225,-0.74223,1.1195,-1.4051,-1.201,-1.8895,-0.15563,1.5531,1.8337,0.27827,1.0688,2.6753,-1.5581,-3.6492,0.66053,0.76256,0.45658,0.9922,0.71166,-0.58899,0.32882,-0.64011,-1.5073,-0.89499,-1.9662,1.0689,1.3492,-0.28314,0.30355,0.2526,0.22717,0.94125,0.20152,0.25249,1.0176,0.4566,-2.221,-0.51239,-0.33412,-0.74212,1.5277,1.0432,-0.53823,-0.15559,-0.13007,0.43111,0.94111,-0.64009,-2.0681,-0.58894,-0.53792,0.45664,1.6042,0.50764,1.8593,-0.38512,-0.94621,0.17601,-1.9406,1.5787,-0.63998,-1.0991,1.145,-0.13,-2.1701,-1.0991,3.2365,1.4003,-1.9407,0.15045,0.71152,0.37995,0.40557,1.1197,0.66089,-0.18086,-2.3231,-0.86975,0.20163,0.07394,-0.56369,0.27799,-0.38502,0.27814,0.66065,0.35456,-0.43604,0.45661,1.2216,-0.66553,-1.5578,0.48214,-0.10453,-0.25759,0.3546,0.27792,1.8335,-0.30843,-2.0935,1.2217,-2.5781,-1.0736,1.298,-0.20649,-0.028005,1.5022,1.6042,-1.3285,-0.02798,-0.079106,-0.66572,-0.027864,-1.0481,-0.10441,0.48218,0.17631,1.1453,-0.48721,-0.30863,0.38,-0.56354,-0.6911,0.20153,0.60969,0.40559,0.71158,-1.1501,0.48228,1.3746,-0.79311,-0.6144,-2.5017,0.86444,1.5532,1.3237,-0.99696,0.35455,-0.64006,0.099369,0.20147,-1.6601,0.27816,0.91556,0.20147,-0.46147,-0.10433,-0.51261,0.83909,0.1251,-0.71651,0.55875,-0.20649,-0.38513,0.7116,-0.33393,1.2982,-0.28294,-0.079088,-0.35963,-1.0992,-2.2212,-0.46146,0.60951,1.4002,1.3238,0.55869,0.60954,0.55864,-1.2012,-1.9407,-0.053451,0.83913,0.048622,-0.23213,-1.1757,-0.053439,2.1143,0.45672,-1.5834,-1.2266,1.0175,0.839,0.32899,-0.94612,-0.43598,0.40566,1.6043,0.048518,-1.8132,0.074087,-0.20652,0.32896,-0.13001,0.83905,-1.5581,-0.18072,0.91568,-0.079045,0.30356,0.45657,-0.10452,0.25253,0.86464,-2.2721,0.15054,0.50757,-0.436,1.2217,1.0176,-1.5835,-0.23195,-0.23201,0.60949,-0.66565,-0.56353,0.89011,0.55865,-0.71666,1.5278,-0.35943,-1.3793,0.50747,-0.86952,1.0177,0.40552,0.40552,-0.15556,-0.46159,-0.28305,-0.027913,0.27815,-0.027913,0.45658,-1.3287,1.7573,-0.71656,-1.5069,-0.33412,0.2524,0.91568,0.55859,-0.30856,0.50751,-0.385,-1.0224,1.2982,0.27815,0.074026,-1.4816,0.074002,0.60963,0.63531,0.58421,1.145,-0.9717,-1.3031,-0.69115,0.099515,0.25256,0.12504,0.78821,0.15052,-1.099,-1.5836,0.099662,0.96663,0.30349,0.66062,0.12504,0.78804,0.68616,-1.2265,-1.5326,-0.53814,0.43104,0.22698,0.40557,0.22703,0.99231,-0.028078,0.48206,-1.8897,-0.20636,1.1963,-0.46159,1.7315,0.43096,-3.7257,-0.94595,1.4001,0.20166,1.0942,1.4001,-1.1501,0.48203,-0.46153,-0.41059,-0.053513,-0.10448,-0.28303,0.25259,-0.41046,0.12512,0.20159,0.2782,1.1451,-0.84403,-1.5325,0.15054,0.40553,0.48186,-0.71664,0.71168,2.2164,-0.10463,-1.0225,-1.762,0.584,1.1706,0.66064,-0.002491,-1.4306,-0.58908,0.25253,0.5076,0.55864,0.25257,-0.33399,-1.0736,0.48202,-0.97145,0.96674,1.0179,-0.30843,0.073868,-1.3033,0.22691,0.38005,-0.15548,0.3546,0.94108,0.81359,-2.3486,-0.92045,0.50763,0.86462,0.15046,-0.078972,0.074026,0.17604,1.0177,0.73717,-0.58904,-0.94598,-0.15553,0.78812,-2.0682,1.1707,0.099583,-1.6857,0.48201,0.55858,1.3491,0.38001,0.43116,-1.8897,-0.69117,0.5842,1.0942,-0.027864,0.2527,-0.33404,0.35462,-0.12999,0.25252,-1.2012,-1.1502,0.048561,0.78813,0.50747,-0.002332,-0.76757,0.48213,0.17609,0.38003,0.96653,0.45657,-2.5527,-0.79304,0.73708,0.81373,-0.18095,-0.15551,-0.30857,0.329,1.4258,0.38003,-0.76758,-0.35949,-0.1556,-2.5017,-0.6146,1.4001,0.53325,0.96679,-0.41052,0.96654,-0.66563,-1.6856,0.86464,0.8136,0.40558,-0.027974,1.7062,-1.5325,-2.1701,-0.436,0.38006,1.1706,0.12505,-1.2011,0.68604,1.2471,-1.66,-0.74203,0.99216,-0.1045,-0.51254,1.2981,0.35456,1.1197,-0.4615,-0.48704,-0.002516,0.27819,-0.25759,-1.2521,-1.0226,1.2982,1.3493,-0.20639,-1.0482,-1.8644,2.0888,-0.33391,0.30383,1.8849,-0.61445,-0.38508,0.022937,0.07391,0.58394,-0.38511,-1.4305,-1.7367,0.8391,0.5076,1.0943,0.68618,0.22702,-0.66553,-0.79313,0.048555,0.6351,-0.41049,-0.66551,0.02298,0.53306,0.48228,-0.053446,-1.099,0.12494,0.2014,0.073977,0.99219,-0.79304,-0.23207,0.30349,0.53307,-0.002369,-0.76752,-1.5071,-0.027913,0.40555,0.50762,0.91567,-0.56345,-1.6091,3.1342,-1.7366,-1.9917,1.9612,-0.76742,2.2418,0.17597,-0.58908,0.40564,0.27798,-0.81873,-0.64007,0.20166,-0.12989,-0.48694,0.25252,0.099399,-0.86958,-0.79301,-0.053378,-0.12988,1.4512,0.15051,0.35456,0.35456,-0.18101,0.48205,-0.053378,-1.5582,1.4004,-0.13009,0.91551,0.22702,-2.2213,-0.76759,-0.33399,0.17607,0.074075,0.81366,0.35467,0.35464,0.48208,0.099564,-0.18102,-0.71661,-0.89505,0.2271,0.48213,0.66067,-0.079026,0.25255,1.4766,-1.1756,-1.7366,-0.76759,-0.2065,0.073995,0.78814,0.60959,1.1452,0.9665,-0.48699,-1.507,-0.436,0.22701,0.15055,1.0432,-0.63992,-0.30856,-0.64016,0.073984,0.25266,0.78825,0.30363,-0.33406,-0.13002,-0.18106,-0.46159,-0.18103,-0.25753,-0.15549,0.35467,0.17609,0.40569,0.38011,1.2216,-1.4052,-1.5071,-0.61455,0.73712,0.32896,0.35464,1.0432,0.76261,-1.0736,0.048549,0.81357,-1.6092,-1.9405,0.86463,1.2472,0.35456,0.1505,0.15053,-0.33406,-0.33406,-0.25751,-0.25753,0.22716,-0.053446,0.45666,0.35454,-0.74212,-1.5326,0.22717,0.55853,0.55861,0.86466,-0.35937,1.9613,-0.18109,-2.3742,-2.0428,0.63494,1.0175,1.4258,-0.12976,0.53328,-0.15555,-0.35962,1.247,-1.4052,-1.966,0.96672,0.66081,0.68608,0.227,-0.53803,0.15049,-0.028023,0.96664,0.099485,1.2472,-1.4305,-0.97163,-0.002387,0.30356,-0.38509,0.22694,0.48211,0.58429,0.73725,0.45653,1.3746,-2.8078,-1.5837,1.2725,-1.5328,0.73734,-0.002448,-0.18095,0.55861,0.45658,0.9921,0.35459,-1.2266,-1.0227,0.71167,-0.33394,0.32917,1.5279,0.09951,-0.3086,-0.86964,-1.1758,-0.538,1.0432,-1.1244,0.73723,0.86452,0.83898,-1.2266,-0.002546,0.2781,0.25263,0.45669,0.17612,-0.66556,0.20145,0.32905,-0.078928,0.15055,-0.078984,0.81355,-0.66541,-1.558,0.43103,-0.053592,-0.2066,1.0687,-0.56347,-0.28294,0.96666,-0.078898,-1.4306,0.76255,0.81352,0.073989,-0.76758,-0.41043,-0.18097,-0.028005,0.22706,0.96674,0.40561,0.66059,0.58417,-2.2212,-0.078959,0.50755,0.099461,-1.3031,-1.0225,0.40555,0.32904,0.73712,0.55857,0.023047,0.43107,0.76261,-0.71646,-1.3285,-1.3031,0.50755,0.43107,0.86456,0.074051,-0.61449,-0.23207,-0.33405,0.50753,0.048427,-1.3539,-0.18091,0.94122,1.0943,-0.35968,-0.4617,0.048482,-0.79305,0.32914,0.15054,0.86472,-1.405,0.20144,0.73707,-0.002497,-0.28301,0.3291,0.074033,-0.028042,0.023065,-0.15545,0.12512,0.53298,1.0686,-2.9352,-0.23192,1.3236,0.40571,0.3545,0.3545,1.196,-2.0937,-1.7111,0.9922,0.63513,0.22701,0.45662,-0.078972,-0.027901,0.074051,-0.18105,-1.0735,0.686,-0.41054,-0.25754,0.1251,0.22701,0.83924,-2.2974,0.68619,0.50759,0.4564,0.099369,-0.46167,-0.053568,0.35456,0.30365,0.86475,0.3036,-1.456,-0.51244,-0.69108,0.71173,0.78821,-0.1811,-0.053604,0.35451,0.63498,-0.23193,-0.35939,-0.078941,-0.28301,0.15055,1.2216,0.048512,-2.4506,0.22704,0.91565,-0.97153,2.0377,-0.28296,0.12507,0.40555,0.35459,0.074038,-0.46157,-0.41068,-0.18098,-0.05339,0.43117,0.099577,-1.9918,-0.4361,0.60957,1.1454,-0.20631,-0.76761,-0.028133,0.27799,0.40565,-0.25761,0.99209,-0.41051,-1.558,0.99226,0.76253,-0.02806,-1.0737,0.89009,1.0177,-0.5124,-0.79291,0.2526,0.32904,0.17595,-0.41051,-0.3851,-0.92056,0.20147,0.50759,0.30356,-0.58898,0.53311,-0.94601,0.1761,1.0433,0.83901,1.4766,-2.6546,0.15066,0.022943,-0.25754,0.099497,-0.10456,-0.18104,-0.23205,-0.10447,0.38013,-0.15542,0.96683,0.074069,-0.66553,-0.23205,0.25256,-0.53815,0.20156,0.71157,-0.7165,-0.99713,-0.078886,0.68616,1.5277,-0.10452,0.35452,-0.58903,-1.1755,-0.28308,0.89011,0.023194,0.30354,0.15054,-0.64013,-0.61455,-0.10447,0.94112,0.68611,-0.97151,-1.405,-0.078953,0.81357,1.2726,0.58407,-0.64004,-0.51248,0.22709,0.15059,0.53302,0.074081,-0.002503,-0.07891,-0.15538,-1.8642,0.55846,-0.6911,-0.027998,0.55847,0.40553,0.12524,0.22702,2.0891,0.78808,-1.1248,-1.8387,-0.053506,0.71158,-1.4307,0.20158,0.9156,1.3238,0.22715,-0.7675,-0.10456,0.20152,0.20149,-0.58909,-0.99714,0.6352,0.15061,-0.30845,0.15057,-0.027956,0.53309,0.22705,0.686,-0.89504,-0.97148,0.99215,-0.10445,-1.6346,-0.25759,-0.23202,0.50752,0.83911,0.99216,1.3236,-1.1755,-0.99709,0.048665,0.60957,-0.078928,-0.33404,0.15048,-1.0481,-0.51244,0.32905,0.27809,0.48206,0.68604,0.35456,-1.3031,-0.46151,0.96668,0.27812,0.22713,-0.51263,-0.12996,0.30355,0.099515,0.099485,-0.25753,0.45661,-0.078966,-0.58901,-0.64001,-0.41049,0.35458,1.5021,1.1197,-1.9661,-0.79307,0.9921,0.78821,-0.385,0.20138,-0.3086,-0.81857,-0.23201,0.12502,0.96671,0.099681,0.20164,-0.002558,-0.18097,-1.1501,0.53313,-0.13009,-0.028023,-0.053531,-0.12994,-0.078977,0.25263,0.15057,-0.18101,-0.079008,-0.30856,-0.41058,-0.002485,1.834,-0.15534,-0.28316,0.20165,-1.0481,0.17604,0.15053,-0.053506,-0.10456,0.17603,1.0176,0.099583,-2.0936,0.023084,0.27805,2.0887,0.22711,-1.558,0.17601,-0.13003,0.07394,0.55855,0.7881,0.22702,0.27814,-0.18096,-0.69104,-1.1246,-0.92062,0.20161,0.43117,1.3492,0.099491,-1.5836,-0.58902,0.58403,0.43103,-0.28308,0.83914,0.53315,-0.18097,-0.078996,-0.23191,0.32907,0.60951,-1.3286,-0.10438,1.4257,1.1707,-2.2722,-0.79315,0.50759,-0.2319,0.99213,-0.02806,0.27806,-0.25747,-0.35953,-0.30851,0.099461,1.5531,-0.94605,-0.81847,-0.28292,-0.15548,0.66066,1.1197,1.1707,-1.0736,0.15043,-2.0682,-0.51244,0.6096,0.83917,0.60962,0.20153,0.099503,-0.41049,-0.48707,-0.69117,0.048549,-0.079008,0.83933,0.20156,-0.30851,-0.20645,-0.23201,-0.078972,0.22699,-0.002558,-0.6401,-0.74203,-0.84395,0.91562,1.4257,-0.20647,1.3492,-0.74199,-1.66,0.86482,0.073989,0.22683,0.15036,-0.02798,-0.10449,0.099552,-0.58905,-0.74194,0.27817,0.60973,-0.027993,0.17601,-0.027956,0.074155,-0.28304,-0.05358,-0.18105,-0.18103,0.50758,0.43112,0.15054,-0.027969,-1.6092,-0.56351,0.43097,1.6808,-0.25733,-0.74178,0.48205,0.81354,0.073989,-0.30847,-0.48711,0.60953,0.22701,-1.507,-0.05347,0.048506,0.048506,-0.079008,0.38006,0.35464,0.32907,0.17604,-0.66551,-0.027938,-0.2575,0.27805,-0.53798,-0.53801,0.30354,-0.15561,0.48208,0.96672,0.20167,-0.33408,0.17604,0.99206,0.022961,-2.9098,-0.74196,1.6554,0.63514,-1.2011,0.099418,-0.41067,0.048487,1.1453,0.63524,0.023078,-0.51257,0.20159,-0.12994,-0.181,-0.33407,-0.46161,0.53315,1.8593,-1.0735,-1.7367,-0.28309,0.074008,1.0431,1.2726,-2.4251,-1.0224,1.1196,0.38007,0.83906,0.86464,0.45656,0.278,-0.61457,-0.64001,-0.027931,0.43124,-0.10452,-0.33396,0.20176,-0.58911,-0.53817,-0.99717,-0.079063,1.5021,-0.99698,-1.201,1.6807,0.60955,0.20161,0.32915,0.20153,0.50758,-0.28299,-0.69108,-0.027969,-0.20651,-0.23204,-0.15538,0.83925,0.53309,-0.10453,-0.56359,-0.3851,0.023072,-0.002461,-0.25753,-0.15559,0.38003,0.45672,0.53314,0.38016,-0.92056,-0.81851,-0.07891,-0.18102,0.73702,0.45647,0.50755,0.45661,0.1252,-0.48703,0.40542,-0.84414,-1.405,0.99229,0.48209,-0.15552,-0.33406,0.048555,-0.9461,0.48213,-0.002479,0.048494,0.91566,0.32915,0.15062,-0.053495,-0.66556,-0.64011,0.60957,0.17606,-0.61451,0.81351,-0.46154,-2.1956,1.3492,0.32897,0.40552,0.099485,-0.18098,-0.10437,0.91581,-1.0988,0.32903,0.099442,0.2014,0.048366,-0.8696,0.32909,0.63507,0.12504,-0.8949,0.099577,0.2526,-0.1045,0.91559,0.22705,-1.2266,-0.15551,0.30357,-0.053519,0.22707,0.71161,-0.46142,-0.078996,-0.30861,0.15057,0.17603,0.45668,0.43113,-0.30855,-0.66568,-0.41057,0.76277,-0.12993,-0.3595,-0.079051,-0.00254,0.68626,0.25237,0.53336,-0.25738,-0.74211,-2.0427,0.68598,0.1249,0.63497,1.5277,-0.43589,-1.048,0.099546,0.2016,-0.23196,0.40559,1.0176,0.50752,-1.9407,-0.18089,0.4311,0.50755,-0.48705,-0.079002,-0.6656,0.50762,0.15043,-0.30837,-0.20644,0.35462,0.43104,0.89015,-0.46161,-0.76745,-0.35956,0.48219,-0.28305,-0.23207,-0.41056,-0.15558,0.9157,-0.41054,-0.10435,0.96674,1.987,-1.5581,-1.2012,-0.20659,0.60952,0.83906,0.099552,-0.97153,0.074111,0.09951,0.71166,-0.053476,0.099608,-0.92065,0.30346,-0.25749,0.63509,-0.23192,-1.303,0.17608,0.86453,1.0941,0.074081,-0.43592,0.15059,-0.28305,-0.053568,0.32912,-0.15547,-0.30854,-0.41055,-0.6656,0.22711,-0.18105,0.73715,0.25254,0.68626,-0.61428,-0.23196,0.8134,-0.30856,-1.201,0.45661,0.22694,-0.15556,-0.66555,0.58417,1.8339,-0.58903,-0.64009,0.022998,0.91568,-1.8131,-0.28305,-0.48702,1.3492,1.2727,-0.56353,-0.56355,0.45662,0.32914,0.38015,0.099528,-0.64009,-0.86964,-0.10453,0.22702,-0.97149,-1.8641,1.0177,1.2727,0.89014,1.1707,-0.41057,-0.079033,-0.79324,-0.3339,-0.002405,0.35464,-0.2065,-0.64006,0.1506,0.50765,0.25255,0.43106,0.43118,-1.2522,-0.84412,-0.69107,1.5532,0.89011,-2.5526,-0.61463,0.63511,1.8847,-0.4615,-0.002405,1.2216,0.8392,-1.5325,-0.28309,-0.002394,-0.12996,-0.002503,-0.23201,0.68606,-0.002461,-1.0991,-0.30843,-0.38503,0.30358,1.0687,0.15049,-0.078898,0.20152,0.55863,-0.56353,-0.30847,-0.027962,-0.18108,0.38002,0.22706,-0.64007,-0.283,-0.81868,0.73709,1.4003,-0.46141,1.5535,0.048494,0.68606,-1.1502,-1.4052,-0.66567,0.40561,1.0688,1.0432,-0.25741,-1.1502,-0.53811,-0.079063,1.0431,0.099619,-1.1245,0.53307,0.8391,-0.56347,-1.0735,0.50759,0.45656,0.38004,1.0176,1.1706,-0.61451,-1.2521,0.32906,-0.35946,-0.97159,0.58409,-0.58906,-0.51238,0.35454,0.074093,0.30357,1.0942,0.20155,-0.25751,-0.20655,-0.69121,-0.23203,-0.053476,-0.053372,0.45667,0.66071,-0.6911,0.40566,0.15058,0.43111,-0.027998,-0.1045,0.76266,0.45667,-0.30846,-1.9662,-1.0737,0.68587,-0.56356,0.15053,0.27809,1.1961,0.20159,0.15067,-0.4104,0.32907,0.55854,0.2016,-0.2575,-0.053482,-0.10444,-0.66562,-0.51259,-0.002448,-0.33409,0.32912,-0.05336,1.4514,0.53318,-1.1757,-0.76774,-0.079033,0.40554,0.53308,0.43106,-0.33396,-0.92049,0.48219,0.27808,-0.10455,0.25265,0.68602,0.22719,-0.84413,0.99226,-0.84409,0.02309,-0.79315,0.022883,-0.58913,-0.20653,0.0485,0.81366,1.4003,-1.3795,0.27817,0.17606,0.38014,0.55852,-0.079088,-1.3542,0.22711,0.68617,0.35453,-0.002423,-0.9461,-0.81849,0.38002,0.48203,-0.38498,0.048555,0.60957,0.048531,-0.41045,0.30358,-0.23203,0.048555,-0.71654,-0.027907,0.20156,0.30347,1.8849,-1.0735,-1.3542,-0.13003,-0.15557,0.55859,-0.2576,0.099497,-0.028018,1.4769,0.023181,0.12514,-0.10449,-0.13018,-1.9663,-1.1246,1.0686,0.60958,1.1708,-0.48699,-0.56354,0.86465,0.55858,-1.2265,-1.4051,0.76253,1.2471,1.2982,-0.69105,-1.4559,-0.20654,0.55857,1.1451,-0.63999,-0.25746,0.89017,0.022956,-0.64007,0.27812,0.99229,-0.41058,-1.0736,0.022986,-0.18098,0.023041,0.074062,-0.79309,-0.64011,0.048525,1.0177,1.1199,0.4311,0.30362,-0.35945,-0.4871,-0.61467,-0.053482,0.15056,0.68621,-0.69108,-0.43615,-0.41049,0.048629,-0.002443,0.55854,0.99205,0.55862,-1.15,-0.33394,-0.56355,-0.46145,0.68616,1.0176,0.48194,-1.1756,-0.48704,-0.23202,-0.078947,1.3748,1.1708,-1.2011,-0.99714,0.09951,0.25242,-0.71656,0.2016,-0.002503,-0.66546,-0.35945,0.99213,0.099601
