-0.07899,-0.027969,-0.002472,0.074038,-0.078972,-0.002472,0.099564,-0.10449,-0.002467,0.12507,-0.027969,0.023029,-0.002448,-0.053482,-0.002461,-0.078966,-0.002479,-0.002454,-0.002472,-0.027969,-0.078972,0.048531,0.048549,0.099559,0.074033,0.048549,-0.002467,0.048536,-0.053458,0.023054,-0.027969,0.099552,-0.002472,-0.07899,0.099564,-0.05347,0.09954,0.074062,-0.13001,-0.027987,-0.10447,0.048555,0.099564,-0.05347,-0.18101,-0.027969,-0.1555,0.12505,-0.053464,0.048555,-0.002461,0.023035,0.048536,0.023029,0.15058,-0.027962,0.099559,-0.25751,-0.002485,-0.12999,-0.02798,-0.05347,0.09954,-0.053464,0.22708,-0.027974,0.074044,-0.15549,0.15057,0.074057,-0.027969,-0.20652,0.023023,-0.053464,-0.027993,0.023059,-0.002461,0.074038,0.023059,-0.002467,0.023035,0.074057,-0.078984,0.074057,-0.027962,0.099552,-0.002461,-0.18102,-0.002454,0.048567,0.17606,-0.002461,-0.18101,-0.053476,-0.078972,-0.002479,-0.078966,-0.002467,0.023029,-0.053464,-0.027974,0.099564,-0.078972,0.074051,-0.002467,0.023041,-0.027969,-0.15549,-0.002472,-0.053464,0.15057,-0.15549,0.048531,0.023035,0.12506,-0.23201,0.17607,-0.05347,-0.002479,-0.181,-0.078984,-0.027956,0.099546,0.099552,0.048549,-0.027974,-0.027974,0.12506,-0.181,0.099552,-0.12999,0.048536,-0.053488,0.15058,-0.002472,0.023041,-0.027974,0.099564,-0.027969,-0.027962,0.074057,-0.12999,0.099552,-0.05347,0.048536,-0.027962,0.048536,-0.07899,0.023041,0.09957,-0.15549,-0.002472,-0.078996,0.074057,-0.10449,0.099559,-0.10448,0.17607,-0.1555,0.15056,-0.23201,-0.002467,0.023047,0.15056,-0.05347,0.048531,-0.181,0.12507,-0.078984,-0.027969,-0.10449,-0.002461,-0.1045,0.17607,-0.078984,0.12506,-0.10447,0.074038,-0.053476,-0.078984,0.048549,0.048543,0.074051,-0.002467,-0.002467,-0.002461,0.12506,-0.13001,0.023047,0.074075,0.074069,-0.07899,0.048543,-0.027974,0.099552,-0.027974,-0.027987,-0.078972,-0.078984,0.074062,-0.18101,-0.027969,-0.002461,0.17606,0.12508,0.074038,0.099564,-0.10449,0.099577,-0.1045,-0.053482,-0.002472,-0.002467,0.048561,-0.23205,0.12505,-0.002454,0.15057,-0.18101,0.2271,-0.12998,0.20159,-0.18103,0.12505,-0.10451,0.048525,-0.053482,0.099559,-0.35951,-0.15549,-0.2065,-0.078953,0.20162,0.12501,0.3801,0.17609,0.074038,-0.002436,-0.25756,-0.18099,0.099528,-0.20651,0.048512,-0.027962,-0.20646,-0.10447,0.15056,0.38011,0.12505,0.30363,-0.66562,0.17606,-0.027962,-0.02795,-0.053519,0.6351,-0.23202,-0.18098,-0.12999,0.074026,-0.15548,0.04858,0.1506,0.3291,0.22712,0.22705,-0.18097,-0.15545,1.4511,-0.46157,-0.64011,-0.48703,-0.30851,-0.58902,-0.10445,0.40564,-0.13007,-0.053525,0.12506,0.66071,0.25267,0.58417,-0.64018,-0.028011,0.12507,0.17609,-0.027974,-0.35954,-0.41058,-0.46158,-0.02795,0.023035,0.32914,-0.10448,0.2526,0.45666,0.15054,-0.05347,-0.58903,-0.079008,0.48208,0.91559,-0.41053,0.20156,0.099644,-0.20651,-0.15549,-0.69106,-0.66554,0.22706,0.329,0.81359,0.023059,0.074051,-0.41049,-0.027925,-0.35945,-0.181,0.63509,-0.002472,-0.078984,0.15056,-0.46158,-0.05347,0.86471,0.22707,-0.078935,-0.56354,-0.58911,0.023041,-0.28303,-0.48711,0.58419,0.68622,0.30358,-0.35956,-0.43607,-0.23197,-0.13003,-0.053488,-0.078959,-0.25746,0.22705,0.83909,0.38005,0.35458,0.15059,-0.48696,-0.48698,-0.078972,-0.232,0.22706,-0.10446,0.27806,-0.43604,-0.18098,0.227,0.81362,0.48208,-0.38506,-0.385,-0.48703,-0.30848,-0.078984,0.048573,-0.078959,0.22703,0.71167,0.8392,1.4004,-0.35951,-0.84415,-1.2013,-0.74218,-0.53811,0.17608,-0.23203,0.63524,0.35464,-0.10452,-0.15553,-0.002461,0.38014,0.22715,0.35461,0.17604,-0.2575,-0.38502,0.25253,0.074087,-0.23198,-0.13001,-0.078966,0.38002,0.17606,-0.10449,-0.2575,-0.28298,0.50759,0.38003,-0.6655,-0.74201,0.048506,0.35458,0.17608,-0.23199,-0.002491,0.12506,0.38008,0.30358,-0.43606,-0.43608,0.58413,0.58419,0.22707,-0.25753,-0.86971,0.20164,0.22716,0.58419,-0.10451,-0.51265,-0.53812,-0.027969,0.048555,0.22709,0.048536,-0.181,-0.56353,0.76263,-0.053464,0.023047,-0.18101,0.35459,0.12512,0.25262,0.25256,0.43107,0.17601,-0.028005,-1.1756,-0.10447,-0.3085,-0.078966,-0.15551,0.35457,0.17607,0.3801,-0.38503,0.20158,0.074033,0.22706,-0.053464,-0.18098,0.43107,-0.43601,-1.0481,-0.10452,0.32905,0.27802,0.15056,0.45668,0.1506,-0.053464,-0.18101,-0.20652,-0.6911,0.074044,0.86471,0.45667,-0.56356,-0.86968,-0.053506,0.048543,0.32907,-0.079021,0.074118,0.22712,0.91562,-0.46148,-0.2065,-0.48698,-0.33401,0.45659,0.099485,-0.002472,-0.053495,0.074075,-0.027969,0.50758,-0.10449,0.48208,-0.25746,-0.46149,-0.20645,-0.002485,-0.002443,-0.25932,-0.23382,0.42922,1.0686,0.53306,0.023054,-0.23201,-0.48702,-0.25753,0.12507,-0.078947,0.30356,-0.2321,-0.18098,0.45668,0.43121,-0.18097,-0.33409,-0.18101,0.023041,0.35458,0.40559,-0.66562,0.04858,-0.12997,-0.33404,0.12505,0.2526,0.2781,-0.15551,-0.078984,-0.053421,-0.002472,-0.002479,0.048518,-0.078972,0.22702,0.15056,-0.7421,-0.25745,1.5277,0.55866,-1.0991,-0.61452,-0.25749,0.278,0.048512,-0.69101,-0.23205,0.58408,0.73718,0.25257,-0.35952,-0.64004,-0.33399,-0.027944,-0.027969,0.125,0.40554,0.074087,-0.74217,0.12512,0.68622,0.58415,-0.10448,-0.20656,-0.46157,-0.3851,-0.078947,0.15058,0.17613,-0.38502,0.22702,0.35464,-0.20652,-0.33406,-0.33402,-0.20654,0.3036,-0.053427,-0.02792,0.38005,0.40557,0.58413,-0.48702,-0.12999,-0.28297,-0.2575,0.22704,-0.053476,-0.23201,-0.002448,0.17604,-0.002454,-0.3595,0.53308,0.22702,-0.002479,-0.002461,0.32908,-0.66555,-0.41051,0.17604,-0.053544,0.30368,0.074118,0.63518,-0.23201,-0.35961,-0.23204,-0.23204,0.074033,-0.35953,0.43117,0.6607,-0.33405,-0.48713,0.074062,-0.002485,0.30361,0.023059,0.17604,-0.46151,0.048555,0.35454,-0.41048,-0.38499,0.2015,0.32907,-0.38498,-0.25749,0.074013,1.0687,0.35448,-0.002374,-0.63995,0.38008,-0.61455,-0.41057,0.25258,-0.51252,-0.078972,0.32907,0.40557,-0.002485,-0.25745,0.38004,0.15057,0.17607,-0.2575,-0.53809,-0.10445,-0.15551,0.12509,0.15058,0.35464,-0.002436,-0.61462,-0.002516,0.32905,-0.48709,0.63524,0.55872,0.074087,-0.35961,-0.46162,-0.28303,0.023054,-0.053506,0.048567,-0.078996,-0.078972,0.60966,-0.12998,-0.25748,-0.51251,-0.3595,1.1197,2.0377,-0.12996,-0.79302,-1.0226,-0.74206,-0.027993,-0.002497,0.4311,0.099534,-0.232,-0.18098,-0.25749,-0.25751,0.53306,0.94111,0.099534,-0.46145,0.074118,-0.64005,-0.10449,-0.002485,-0.23203,0.58416,0.5332,0.023029,-0.41061,0.27809,0.22708,-0.15545,-0.28305,-0.53812,0.25259,-0.23204,0.048561,-0.181,0.27813,0.5842,-0.028005,-0.20647,-0.15552,-0.10453,0.38013,0.17612,0.048573,-0.002503,-0.028018,-0.56353,-0.53803,0.30356,0.12504,-0.002485,-0.10444,0.78807,-0.12991,-0.25751,-0.3085,-0.23199,0.099552,-0.053482,-0.18098,0.45653,0.074051,0.023065,-0.053476,0.27804,0.2271,-0.25752,-0.35952,-0.30856,0.55867,0.6352,0.94139,0.099559,-0.4361,-0.69118,-0.66564,-0.079008,-0.28308,0.15055,-0.002412,-0.05347,0.27808,0.32913,0.22704,0.27811,0.074142,-0.43596,-0.15543,0.22707,0.81354,0.63507,-0.25759,-0.53804,-0.76754,-0.58901,-0.20647,-0.18097,-0.18095,-0.079002,0.71162,0.35453,0.27808,0.12504,-0.07899,-0.30851,-0.38508,0.023078,0.48217,0.78827,0.1251,-0.58915,-0.35956,-0.181,0.17608,-0.48708,-0.15549,0.15054,-0.05347,-0.079033,0.99208,-0.51254,-0.15535,0.17611,0.023078,-0.20648,-0.13006,0.17606,0.58419,0.25257,-0.18098,-0.12999,-0.43607,0.12504,-0.079033,-0.41052,0.12507,0.023041,0.78814,0.76263,0.35462,-0.74203,-1.0991,-0.20649,-0.10448,0.12504,0.15053,0.30357,-0.10448,0.048518,0.17604,-0.28297,0.15055,0.023059,0.38005,0.25256,-0.10449,-0.81865,-0.33401,-0.12994,0.71181,1.2473,0.023023,-0.76773,-0.28303,-0.61463,-0.30856,-0.053482,-0.002472,-0.027974,0.074081,0.27812,0.35462,0.099613,-0.12995,-0.027956,0.2525,-0.078977,0.023029,0.023023,-0.30854,-0.12995,-0.05347,-0.35953,0.12501,0.073995,-0.35948,-0.12999,0.4566,-0.25746,-0.10442,0.45657,0.60958,-0.23204,-0.64006,-0.053335,0.023121,0.2016,-0.23208,-0.35954,-0.15557,0.099528,0.048476,0.27812,0.074038,-0.10444,0.099559,-0.002448,0.2781,0.09954,-0.20651,-0.51263,-0.10449,0.048506,0.83931,0.58421,0.53322,-0.002491,-0.76771,-0.84421,-0.71665,-0.33401,0.48211,0.4056,0.20158,0.074057,-0.053451,-0.12996,0.20156,0.25264,0.55859,0.048598,-0.33401,-0.00254,-0.385,-0.43604,0.50756,-0.48705,-0.35951,0.074069,0.35462,0.27805,0.12505,-0.30855,0.32908,0.22708,-0.053415,-0.15553,-0.18097,-0.18106,-0.38502,-0.02792,0.38016,0.4566,-0.13002,-0.56362,0.099564,-0.15547,0.45666,0.048482,0.2526,0.40561,-0.20647,-0.56354,-0.38504,-0.053519,-0.23202,-0.20656,0.50769,0.22702,-0.10452,0.20166,0.86478,0.35468,0.1506,-0.10448,-0.48713,-0.05347,-0.74199,0.63501,-0.028042,-0.20655,-0.079008,-0.30851,-0.38499,0.099619,0.71158,0.12509,-0.46149,-0.002461,-0.10446,0.17607,0.048531,0.32904,0.22707,-0.23197,-0.7166,0.099559,0.45661,0.2781,-0.56362,-0.28305,-0.41058,1.0178,-0.027969,-0.79318,0.099588,0.55871,0.25259,-0.81869,-0.38507,0.22714,0.35463,-0.05347,0.27802,-0.10455,0.074081,-0.38505,-0.027895,0.32912,0.68621,0.073995,-0.10453,-0.181,-0.232,-0.027987,-0.07891,0.074118,0.58405,-0.64003,-0.079008,-0.10455,-0.28293,0.25254,0.20158,-0.538,-0.078984,0.15055,0.17604,0.20156,0.35455,0.17606,-0.02795,-0.58904,-0.002467,-0.053482,0.30363,-0.18097,-0.027956,-0.079045,-0.25757,-0.078977,0.32906,0.53319,0.1251,0.22716,-0.3596,-0.53811,-0.38506,-0.027956,0.0741,0.71165,-0.00251,-0.23202,0.074057,-0.23197,-0.283,-0.30847,-0.10444,0.71156,0.074075,-0.10449,0.73709,-0.18095,-0.23196,0.20157,0.3546,-0.20647,-0.66559,-0.13006,0.30361,0.38013,0.1761,-0.02798,-0.20655,-0.35951,-0.23202,0.22704,0.7116,-0.41051,-0.28297,-0.027987,0.43115,-0.002448,-0.027913,0.099552,0.099546,0.15055,-0.18101,-0.25757,0.15059,-0.15551,-0.002454,-0.0535,-0.30854,0.048543,-0.027969,0.58419,-0.079002,0.15065,-0.33401,-0.23207,0.482,-0.15554,-0.12999,-0.027944,0.30364,0.35467,-0.25751,-0.51257,-0.66552,0.2015,0.12501,0.86458,0.53314,-0.23191,0.074038,-0.33402,-0.35953,-0.64006,0.89004,0.22707,-0.43605,0.53324,0.55873,0.63527,-0.48711,-0.48711,-0.56365,-0.053488,-1.1758,0.25262,0.43116,0.53315,-0.33407,-0.25754,0.40563,0.12514,-0.4359,0.048506,0.45656,0.022956,-0.18101,0.023041,-0.07891,-0.6911,0.58417,0.71176,0.68621,-0.66557,-0.10459,-0.66565,-0.76756,0.48206,0.45658,0.20153,-0.436,-0.64001,0.20156,0.32907,-0.18097,0.15058,0.63509,0.3036,-0.12996,-0.027931,-0.078935,-0.33406,0.2015,0.53307,-0.38511,0.76274,0.20156,-0.8696,-0.2065,0.22713,-0.053451,0.27808,-0.25755,-0.46161,-0.15552,-0.33407,0.25259,0.22708,0.5077,0.43111,-0.48703,0.15061,-0.58913,0.074118,1.2217,0.15064,-0.66561,-0.30858,-0.28301,-0.20649,0.15059,0.25254,0.22708,-0.053519,-0.002516,-0.63996,0.12516,1.2217,-0.079014,-0.487,0.48207,-0.38503,-0.33401,-0.43606,-0.46154,0.023035,0.60966,-0.10451,-0.33407,0.17606,0.5332,0.12507,0.12506,0.20155,0.78821,0.048585,-0.30852,-0.48707,-0.12998,-0.86972,-0.13004,-0.61466,0.22717,0.25262,0.53317,0.3291,-0.15548,-0.99721,-0.027871,1.4258,1.7063,0.099588,-0.33405,-0.5381,-0.25763,-1.4307,-0.74205,0.099528,0.40557,-0.02792,0.4311,1.0431,0.023096,-0.25746,-0.35947,-0.48702,0.048506,1.6042,-0.002454,-0.46156,-0.48696,-0.79304,0.12502,-0.078984,0.53306,0.17609,-0.027944,-0.30855,-0.002479,-0.002467,-0.10449,-0.10447,0.023017,-0.027969,0.25262,0.25262,-0.30857,0.048512,-0.38506,0.78829,0.3801,0.38019,-0.74214,-0.2831,-0.25759,-0.20655,-0.23202,-0.02792,0.099552,0.30359,0.22709,0.15062,-0.66553,0.20153,0.53313,0.12508,0.60963,0.40551,0.048561,-0.5125,-0.18097,-0.6656,-0.079014,0.22708,0.023054,-0.51252,0.023047,-0.35953,0.38007,0.20156,0.20153,0.30364,0.12504,-0.232,0.20158,0.32908,-0.23201,-0.89519,-0.15546,0.53318,0.35465,-0.15556,-0.20651,0.20161,0.22716,-0.74217,-0.30872,-0.20655,1.0434,-0.12991,-0.13,-0.25755,-0.10452,-0.20656,0.35462,0.074106,0.15074,0.68608,-0.053537,0.099479,0.17598,-0.66553,0.022992,0.12507,-0.3595,-0.002394,0.0485,0.30361,0.43112,-0.10444,-0.18097,-0.74207,-0.33402,0.68605,0.50757,0.12508,-0.027913,-0.51261,-0.078966,-0.53813,0.40566,-0.25753,0.048604,0.2271,0.4056,0.2526,-0.25752,0.023041,-0.25758,-0.10452,-0.12994,0.12513,-0.002479,-0.078996,0.27812,0.45664,-0.43606,-0.53803,0.1505,-0.15556,-0.38504,0.76266,0.86466,0.023054,-0.28301,-0.43599,0.58414,-0.51248,0.15057,-0.002485,-0.181,-0.30851,-0.30861,0.30359,0.22705,0.53312,0.2781,-0.1555,-0.181,-0.078959,0.048531,-0.181,-0.12997,0.17605,-0.15556,0.02309,-0.33399,0.20158,0.76273,-0.41049,-0.23202,0.074033,-0.71668,-0.002558,-0.18105,0.7373,-0.12996,0.58414,-0.027956,-0.23204,-0.002497,-0.15553,0.40566,-0.15545,-0.61459,-0.02795,0.58416,0.53306,-1.0737,0.58425,0.22716,-0.053506,-0.28309,-0.33401,0.15054,0.048543,0.15057,0.22706,-0.51254,0.074057,0.63511,0.45658,-0.69104,-0.35948,-0.079051,-0.1045,0.15059,0.1251,0.023096,0.30358,-0.10447,0.09954,-0.30861,0.22702,-0.41058,0.83927,-0.15549,-0.1555,-0.51249,-0.58903,0.68615,0.55866,0.48209,-0.46162,-0.38502,-0.46147,-0.25753,0.12504,0.22705,0.27809,0.22708,0.15057,0.48218,0.25257,-0.23202,-0.20652,-0.46153,-0.38505,0.53309,-0.002461,-0.35948,0.50755,0.32912,-0.23201,-0.18099,-0.02798,-0.33401,0.17608,-0.1555,-0.38502,1.0432,0.30355,-0.58908,-0.12998,0.78811,0.25256,-0.56362,-0.84402,-0.53809,0.83931,0.40561,-0.28307,-0.33412,-0.15553,0.86478,0.30363,0.074038,-0.48706,-0.15551,-0.30855,-0.23203,0.048561,0.023139,0.099528,0.125,0.15054,0.58408,0.15051,0.45679,-0.002454,0.12514,-0.84411,-0.18101,0.45657,0.048506,-0.38509,-0.48707,0.22699,-0.41054,-0.053433,-0.10452,-0.078923,0.71168,0.17611,0.45664,0.17611,0.022998,0.09951,-0.25753,-0.33396,0.25255,-0.079039,-0.35952,-0.61458,-0.02792,0.25259,0.35457,-0.18094,-0.33401,0.78812,0.63508,-0.89502,-0.20657,0.074062,0.048536,-0.15554,-0.002443,0.099608,-0.69102,-0.30859,0.27802,0.32906,0.58415,0.68629,-0.28297,-0.028018,-0.35955,-0.58908,0.12507,0.176,-0.002436,0.17616,-0.25754,0.55861,-0.38513,-0.58905,-0.56356,-0.20655,0.68617,1.4514,0.15062,0.048487,-0.33402,-0.64009,-0.23201,-0.9717,-0.15547,0.55862,0.53307,0.1761,-0.23201,-0.10451,-0.078972,0.22709,0.099534,-0.46155,-0.23198,0.023005,-0.12998,0.074081,0.22708,0.07402,0.2271,0.074062,-0.20647,-0.38504,0.40549,-0.00254,-0.10438,0.5842,-0.3084,0.35459,-0.35964,-0.33404,-0.79304,0.35461,-0.10453,-0.28309,0.43116,0.27809,0.63517,-0.38506,-0.20649,-0.002491,-0.30853,-0.07891,-0.027889,0.20154,0.27802,-0.18099,0.15052,0.17607,-0.56352,0.3036,1.1196,-0.48702,-0.25746,-1.1246,-0.28303,0.38013,0.20153,0.60963,-0.30854,-0.002479,0.78816,0.66067,0.02298,-0.43609,-0.58903,-0.18104,0.02317,-0.385,0.17609,0.048525,0.32904,0.074062,-0.027987,-0.002454,-0.181,-0.35959,0.15054,0.12509,0.38016,0.96675,0.15054,-0.33402,-0.23207,-0.38502,-0.74208,-1.0991,0.43112,1.2727,0.048549,-0.13001,-0.15548,0.048567,-0.33401,-0.078953,0.12509,-0.053439,0.6605,0.45663,-0.61451,-0.12998,0.048506,0.099515,-0.078947,0.074062,0.30355,-0.3595,-0.53809,-0.53814,0.40566,0.60971,0.27811,-0.28298,0.17612,0.53315,-0.48711,-0.51267,-0.20653,0.40564,0.17601,-0.20644,-0.46153,0.1251,0.20157,0.35458,0.25261,-0.12998,-0.053427,0.30359,-0.18102,-0.66554,-0.35948,0.89009,0.15055,-0.28299,-0.079026,0.17608,0.22698,0.40561,-0.38497,-0.76752,-0.38502,0.58408,0.38007,0.35458,-0.053495,-0.20647,-0.18095,0.074038,0.20155,0.35457,-0.12998,-0.18103,0.048512,-0.43604,-0.10448,-0.18096,0.48223,1.0942,0.58416,-0.25749,-0.76766,-0.6401,-0.69117,-0.30853,0.48222,0.66064,-0.18103,-0.48711,-0.027987,0.43117,-0.002461,0.7117,0.20161,-0.84409,0.074142,0.76261,0.58403,-0.58907,-0.69108,0.30351,-0.43604,-0.1555,0.53305,0.023072,-0.61447,-0.66547,-0.027969,1.0431,0.66062,-0.25749,-0.28298,-0.30851,0.12505,-0.12999,-0.12995,0.35451,0.55856,0.099546,-0.385,-0.385,-0.20645,-0.053495,0.22708,0.15057,0.22705,-0.25751,-0.48707,0.32916,0.35461,0.83923,0.2016,-0.4616,-0.76764,-0.69115,-0.33416,0.53318,0.48222,-0.20651,-0.28305,-0.71655,0.20155,1.4258,0.27809,-0.02795,-0.436,-0.94609,-0.12992,0.022968,-0.10451,0.25259,0.023005,0.45656,0.45664,-0.002467,-0.58903,-0.99707,0.35468,0.73714,0.78812,-0.053544,-0.66561,-0.078923,-0.027969,-0.002485,-0.15551,-0.84408,0.074038,0.81366,0.048494,-0.41056,0.27817,-0.20647,0.43115,0.38016,0.12505,-0.43606,-0.15555,0.20161,-0.71668,-0.43612,0.023029,0.48219,-0.18098,-0.46147,-0.23205,0.76265,0.83919,-0.028005,-0.30851,-0.48697,-0.053544,0.63508,0.60961,-0.43595,-0.58902,-0.58897,-0.33402,0.63503,0.048487,-0.41058,-0.20647,0.17611,1.1453,0.048518,-0.18105,-0.23205,-0.13001,-0.12994,-0.181,-0.002491,-0.18098,0.09951,0.48209,-0.12999,-0.23189,-0.15547,0.17605,-0.079008,0.099534,-0.12994,-0.25745,0.4055,-0.48713,0.20169,0.15057,0.38011,-0.58911,0.15054,-0.41059,-0.15553,0.22712,0.58421,-0.58907,-0.053451,0.22712,0.38009,-0.51262,0.099534,-0.078996,-0.25747,-0.15552,0.074062,0.5076,0.45668,0.1251,0.09951,-0.20646,-0.6146,-0.15549,0.023023,0.22707,-0.15548,-0.61452,1.0941,0.17609,-0.48702,-0.28299,-0.002448,0.099552,-0.053525,0.4311,0.1761,0.20159,-0.30857,0.25265,0.43117,-0.18099,-0.76769,-0.10461,0.35454,-0.18091,0.25265,0.15051,-0.66556,-0.43608,0.50762,0.30357,0.20156,0.023072,-0.33401,-0.18097,0.76269,0.074118,-0.10451,-0.053586,0.17605,0.099637,-0.30849,-0.10455,-0.20653,-0.48702,0.099473,-0.079033,-0.12998,0.40567,-0.10442,0.53313,0.07402,-0.0535,0.12506,-0.20647,-0.30849,-0.9716,0.48211,0.63517,0.4311,-0.23204,-0.33405,-0.33401,0.023059,0.17601,0.12504,-0.30847,-0.28304,0.074038,0.099619,1.1199,1.0941,-0.18103,-0.5891,-0.79312,-0.28306,-0.079002,0.099521,-0.84404,-0.078984,0.68617,0.25261,0.15054,0.30361,0.17611,0.20158,-0.053525,-0.20653,-0.15548,-0.58908,-0.64006,0.25257,0.20153,0.27809,0.12502,0.58423,-0.002485,-0.078923,-0.33406,0.048494,-0.028005,-0.10447,-0.58905,0.43111,0.12507,0.35456,0.38001,-0.487,-0.12993,0.1761,-0.12995,0.048629,-0.33403,-0.10456,-0.23204,-0.3596,0.20158,0.48214,0.25255,-0.20652,0.074069,0.76273,-0.28302,-0.15548,0.023059,0.099619,-0.35956,-0.51267,-0.13002,0.38012,-0.18103,0.023072,0.17611,0.17609,0.20159,-0.027974,-0.053482,0.27811,0.15055,0.023072,0.38012,-0.51259,-0.84424,-0.027956,0.83925,0.66073,-0.30854,-0.13,-0.41055,-0.23205,-0.23201,-0.12996,-0.23198,0.099559,0.023065,0.15052,0.17606,0.023017,0.3291,0.30364,-0.07899,-0.30853,-0.10445,0.074026,0.12507,-0.027944,-0.00251,-0.10449,-0.078966,-0.25749,0.073995,-0.23201,0.20158,0.099577,0.30357,0.25254,-0.28296,-0.48702,0.32905,-0.20647,0.099577,0.09957,-0.078984,0.48214,0.17597,-0.078959,-0.2575,-0.51261,-0.33401,-0.027871,0.58411,0.3036,-0.46159,-0.002448,0.60963,0.27807,-0.027987,-0.43605,0.15062,-0.18098,0.023029,-0.13001,0.22706,-0.02792,-0.61464,-0.4106,0.30361,0.32913,0.04858,0.30364,0.27806,-0.053531,-0.58909,-0.002467,-0.385,0.22709,-0.33407,0.38014,0.35463,0.35465,-0.33402,-0.18099,0.12496,-0.41052,-0.30848,0.63512,0.3036,0.12509,-0.385,-0.51254,0.38004,0.09951,0.17605,-0.33401,-0.5635,-0.41048,0.45661,0.22706,0.25259,0.43106,0.17604,-0.43603,-1.0482,-0.25751,0.86479,1.0943,0.60967,-0.48711,-0.33405,-0.35958,-0.28308,-0.23203,-0.078996,0.048543,-0.2065,-0.10446,-0.053446,0.27811,0.17607,0.30359,-0.078977,0.17603,0.22709,-0.002497,0.40565,0.074075,-0.33406,-1.0736,-0.053433,0.27806,0.8391,1.0941,-0.18101,-0.79304,-0.35946,0.38005,-0.078984,-0.58901,-0.18094,-0.23202,-0.15553,0.40565,0.20159,0.17601,-0.41057,0.074069,0.53307,0.40564,0.27808,0.099564,-0.48706,-0.64014,-0.66567,0.3291,0.2527,0.32914,-0.20656,0.15058,0.32914,-0.20653,-0.18101,-0.33404,-0.053488,-0.05347,0.20158,0.099521,-0.12998,0.12513,0.8138,0.35456,0.022956,-0.41053,-0.35956,0.32902,0.023017,-0.61455,-0.7675,0.43107,0.60957,-0.02798,-0.23199,-0.35948,-0.30851,0.43111,-0.05347,-0.385,0.60958,0.12505,-0.23197,0.023047,-0.002491,-0.078972,0.048518,-0.079002,-0.002448,-0.283,-0.23202,0.099577,-0.10447,0.27811,-0.51265,0.17612,0.45667,0.38013,0.35467,-0.25756,-0.38508,-0.35959,-0.10453,-0.10447,0.15055,-0.81861,0.15059,0.53314,0.73716,-0.181,0.2271,-0.38503,-0.078972,0.22714,0.58417,-0.0535,-0.8186,-0.51255,-0.053525,0.55856,0.35459,-0.18099,-0.12996,-0.23198,0.15053,0.15057,-0.30851,-0.002467,0.20156,-0.078947,0.023035,-0.13001,0.048525,0.17614,0.17607,0.35458,-0.28304,-0.027987,0.022986,-0.20649,-0.15549,-0.74216,0.50768,0.58422,0.074093,-0.13001,-0.28306,-0.13005,-0.13005,0.43116,-0.10448,0.25261,0.27815,0.099588,-0.56364,-0.35957,-0.18099,-0.10453,-0.1045,0.43111,0.35466,-0.15548,-0.078953,-0.18092,0.50765,0.45656,0.09954,-0.28303,-0.15553,-0.053506,-0.078972,-0.20649,-0.2065,-0.053458,-0.589,0.15054,0.32908,0.17604,-0.053482,0.09954,0.099577,-0.027944,0.048543,-0.027974,0.048506,-0.002467,-0.3085,-0.002454,0.023023,0.099528,-0.1555,0.12507,-0.86972,0.22713,1.2984,0.63523,0.12507,-0.5381,-0.56367,-0.46161,-0.61463,-0.25756,0.27815,0.27812,0.15056,-0.10448,0.07402,0.074069,-0.02795,0.35459,0.1761,-0.027938,-0.38499,0.12504,0.227,-0.25751,-0.15548,0.15055,-0.05347,0.074057,-0.15553,0.22705,-0.25748,-0.20647,-0.15551,0.17601,-0.027993,-0.027913,-0.078959,-0.13004,0.43112,0.074118,0.17609,0.099491,-0.10451,-0.79307,-0.18101,0.15058,0.58418,0.15055,-0.002467,-0.053513,-0.078977,0.25262,0.25256,-0.15546,-0.30852,-0.23205,-0.13004,-0.15555,0.17606,-0.12993,-0.07891,-0.053519,-0.002454,0.40563,0.43112,0.27806,-0.05347,0.12507,-0.35954,-0.30853,0.048573,-0.33405,0.60964,0.3291,0.40562,-0.46159,-0.71656,-0.25757,-0.41051,0.25256,0.4311,-0.48703,0.68617,0.17609,0.099564,-0.10452,0.074026,0.023041,-0.027944,-0.20648,-0.30855,0.099528,0.15056,-0.15551,-0.41056,-0.053439,0.38018,0.22712,-0.20655,-0.48717,0.30361,0.45667,0.86474,0.22709,-0.76763,-1.1758,0.099485,0.2781,-0.15548,-0.12994,-0.027962,0.32909,0.074057,-0.053446,-0.46153,0.30362,0.60963,0.35459,-0.079039,-0.38508,0.074136,-0.28303,0.12505,-0.053476,-0.15553,-0.053488,0.099613,-0.23196,0.30357,0.12504,0.023035,-0.027969,-0.18104,-0.027998,-0.002503,-0.15549,-0.1809,0.15056,0.27809,-0.05347,-0.23207,-0.23202,-0.25762,0.89027,0.35473,0.53319,-0.15556,-0.53814,-0.38507,0.048561,0.4311,-0.25753,-0.53805,-0.053488,-0.15547,-0.079008,0.43113,0.22711,-0.02798,-0.20652,0.35462,0.1761,0.45659,0.278,-0.35954,-1.1756,0.35458,0.55862,-0.56362,-0.46152,0.27811,0.43115,0.25254,-0.23202,-0.33404,0.12504,-0.30859,0.17609,0.074075,0.22715,0.2781,-0.2066,-0.10449,-0.20649,0.099619,0.099546,-0.25754,0.17611,0.25263,-0.13001,-0.027969,0.074044,0.22705,0.22708,-0.15551,-0.23205,0.023065,-0.18101,-0.46151,0.27804,-0.15549,-0.41047,0.023035,0.099528,0.20156,0.074057,-0.002443,0.17606,-0.027998,0.048561,0.048555,0.15059,-0.15548,-0.20653,0.023029,-0.23198,0.25257,0.022998,-0.13002,0.023072,-0.053451,-0.12998,-0.078972,-0.027944,-0.2321,0.32913,0.66074,0.30359,0.17611,-0.28306,-0.38513,-0.15551,-0.23203,-0.30857,0.32913,-0.002479,-0.15553,-0.027956,0.27812,0.68624,-0.15548,-0.43611,-0.18101,0.40564,0.048536,-0.053495,0.048561,-0.053482,0.27811,-0.23201,-0.12999,-0.15551,-0.078977,-0.002479,-0.002448,0.40557,0.099534,-0.25748,0.15055,-0.078947,0.15055,0.12506,-0.2575,-0.20647,-0.00251,0.20159,0.22702,-0.53804,0.023065,0.58417,0.27808,-0.25751,-0.28302,-0.33405,-0.18101,0.09954,0.099564,-0.12994,0.45664,0.53315,0.023035,-0.53815,-0.18103,-0.74214,0.68622,0.2781,0.55868,-0.35955,-0.35954,-0.10445,-0.18101,-0.02798,-0.41052,-0.028011,0.55864,0.63515,0.22707,-0.487,-0.56351,0.023023,0.27805,-0.002503,0.074069,0.27808,0.20158,-0.30855,-0.15548,-0.28302,-0.28298,0.048561,0.023023,0.43111,0.048536,-0.181,-0.002467,-0.25752,0.38007,0.35461,0.048598,-0.28298,-0.33404,-0.1045,0.17604,-0.078996,-0.232,0.30356,-0.35962,0.074069,0.63524,0.53325,-0.12999,-0.86971,-0.33406,0.12509,0.38014,-0.23204,-0.05347,-0.079026,-0.053537,0.12505,-0.15543,0.32915,0.15059,-0.4105,-0.00251,0.27805,0.22706,-0.15548,-0.15548,-0.12996,-0.002448,0.074062,-0.33401,0.023017,0.074075,-0.18101,0.023023,0.25254,0.048518,0.023072,-0.20644,0.048525,0.20156,0.074033,0.15054,-0.20649,-0.4615,-0.15549,0.074026,0.32907,-0.3085,0.12506,0.12506,-0.053482,-0.30852,0.27805,0.17609,0.074038,-0.002479,-0.81864,0.43113,0.78823,0.63519,-0.41057,-1.1248,0.12507,0.66077,0.63522,-0.48708,-0.66561,-0.53813,-0.028011,-0.30851,0.17609,0.35459,0.81369,0.45668,-0.12993,-0.002491,-0.33399,-0.81863,0.35453,-0.07899,0.25256,0.4821,-0.12996,0.22707,-0.18097,-0.28295,-0.15547,-0.20652,0.32907,0.22708,0.099515,-0.027962,-0.18103,-0.46153,-0.002454,0.20155,-0.002461,-0.18098,0.3546,-0.053476,-0.15547,0.15054,0.02301,0.099546,-0.027956,0.023054,0.15055,0.15057,0.15054,-0.35952,-0.43607,0.023035,0.60973,0.074062,-0.48695,-0.51265,0.25254,0.20155,0.27813,-0.10453,-0.38507,-0.13002,0.048536,0.12507,0.45667,0.023065,-0.35956,-0.30847,0.048549,0.4056,-0.30855,-0.15553,0.023054,0.48218,-0.2065,-0.18099,-0.079002,-0.20645,0.27803,-0.23203,-0.027993,-0.002479,-0.15553,-0.053433,0.099564,0.55862,-0.23199,-0.15549,-0.027998,0.17607,-0.15548,-0.13,-0.232,0.048555,0.17606,0.22705,-0.28303,0.074069,0.17605,-0.02798,-0.5636,0.63523,0.1506,0.22711,-0.66567,-0.56364,-0.30851,0.83925,0.55873,-0.15551,-0.13005,-0.23205,-0.28305,-0.002454,-0.25753,-0.002479,-0.027938,0.023029,0.40561,0.20161,-0.12998,-0.002467,-0.002472,0.048531,0.023103,0.048536,0.22711,-0.28302,-0.33401,0.58401,0.048512,-0.76758,0.32907,-0.053464,0.074062,0.15062,0.12502,-0.35954,-0.436,0.30359,0.15056,-0.38511,0.27811,0.27811,0.20163,-0.35959,0.17607,-0.18103,-0.002436,0.15059,0.12509,-0.02795,-0.23204,-0.33406,0.15054,0.2271,-0.12998,-0.25751,-0.079008,0.78825,0.32907,0.099521,-0.053506,-0.25749,-0.25743,0.27809,0.048494,-0.15548,0.48214,0.25252,-0.53806,-0.89516,-0.2065,0.48213,0.55869,-0.05347,-0.028023,0.15064,-0.027938,0.17603,-0.33407,-0.13,0.048536,-0.15546,-0.002467,0.048561,0.38013,0.099559,0.099515,-0.41054,0.15057,0.074057,0.17611,-0.18102,-0.23205,0.048525,0.12509,0.0741,-0.30856,-0.15557,0.12516,0.099583,-0.20649,-0.028042,-0.23206,0.048525,0.5587,0.35464,0.27811,-0.002454,-0.56359,-0.5381,0.20153,-0.20651,0.27808,-0.15553,-0.002423,-0.078972,0.43112,0.27808,-0.28297,-0.053451,0.12501,-0.12996,-0.027998,0.15059,0.20161,-0.053482,-0.8442,0.048592,0.12502,0.86471,0.023029,-0.13,-0.13006,-0.43603,-0.1554,0.35459,0.27805,0.35459,0.048555,-0.10452,-0.23204,-0.30849,-0.46154,-0.1045,0.53318,0.1506,0.12505,0.074002,-0.07899,-0.053476,-0.20642,0.22705,0.02301,0.048543,-0.20653,-0.43607,0.074069,0.55866,0.48214,-0.35955,-0.385,0.099521,0.022974,-0.4871,-0.33403,0.99234,0.68626,-0.12996,-0.25759,-0.23209,-0.283,0.02301,-0.18101,-0.41062,0.60969,0.48225,0.17611,-0.1555,0.023005,0.2015,-0.10449,-0.13,0.099577,-0.51257,0.27815,-0.30853,0.78821
-0.002485,-0.05347,-0.10449,-0.12999,-0.078966,-0.0535,0.17607,0.099564,0.099552,0.12507,-0.02798,0.048525,-0.053482,-0.12999,0.023035,-0.027956,-0.07899,0.099564,0.12507,0.074038,0.048549,-0.15549,-0.002479,-0.027974,-0.15551,0.09954,-0.078977,-0.027969,0.099559,-0.053458,0.074033,-0.053495,-0.078977,-0.027962,-0.10448,-0.078996,0.023047,-0.002467,0.074044,-0.15548,-0.027962,-0.002485,-0.181,0.12505,-0.002454,0.12505,0.074057,-0.15548,0.048549,-0.027969,0.023035,0.023035,-0.12999,0.15056,-0.12999,0.12506,-0.10449,0.023035,0.048549,-0.002443,0.12505,-0.12999,0.023047,0.074044,-0.05347,0.074038,-0.1555,0.17606,-0.15549,-0.002461,-0.078996,-0.078972,0.099552,-0.053464,0.12505,-0.002472,0.048555,0.048536,-0.027962,0.048531,-0.181,-0.053464,-0.027969,0.023041,0.048555,-0.027969,0.17606,-0.078984,0.023041,-0.07899,0.048555,-0.027969,-0.053458,0.17607,-0.053482,0.023041,0.023035,-0.10449,0.12505,-0.10447,-0.002454,-0.078977,-0.078972,0.12505,0.023035,0.048543,0.074057,-0.053476,0.048549,-0.05347,-0.002461,-0.002485,-0.053458,0.048536,-0.027969,0.12505,-0.05347,0.15057,-0.20648,0.09954,0.074044,-0.1045,-0.002467,-0.002448,-0.053482,0.048549,-0.053464,-0.053506,0.12507,0.048555,0.048549,-0.027962,-0.078972,-0.15551,-0.027969,-0.053476,-0.027974,0.15057,0.048555,-0.027993,0.048549,0.074057,0.023041,-0.181,-0.12999,0.12505,0.074033,-0.05347,-0.05347,0.023035,-0.12999,-0.10449,0.048549,-0.078984,-0.12999,0.023041,0.17606,0.048555,-0.05347,-0.12998,-0.053476,-0.10447,0.074044,0.023047,-0.078996,-0.002485,-0.002454,0.048543,0.099546,-0.027956,0.023035,0.074057,0.048567,-0.053488,0.074038,0.048555,-0.15549,0.09954,-0.002454,-0.078959,0.023017,-0.12999,0.023047,0.09957,-0.10449,0.023023,-0.078984,0.074051,0.30361,0.099559,-0.20652,-0.20654,-0.18098,0.023054,0.048561,-0.10452,-0.43612,0.2271,0.32914,0.22712,0.25263,-0.079026,-0.33409,0.074051,0.17609,0.048585,0.048543,0.25257,-0.30856,-0.38505,-0.20652,-0.2065,0.022998,-0.13,0.45668,0.50765,0.38012,0.15054,-0.43604,0.38011,-0.35954,-0.078935,0.17605,-0.41053,-0.61455,-0.23199,-0.28298,0.12506,0.83911,0.91561,0.17606,-0.10453,-0.25746,-0.5125,0.099595,-0.61452,-0.078977,0.22704,0.32904,0.12509,-0.4871,0.63506,-0.25743,-0.053397,-0.13,0.35454,0.048494,-0.18099,-0.078928,0.38018,-0.15547,-0.12999,-0.30852,0.3546,0.45659,-0.35956,-0.48708,-0.027956,-0.002467,-0.10449,-0.053415,0.17597,0.58416,0.48221,0.12507,-0.1555,-0.84413,0.073977,0.99211,-0.81854,-0.48698,-0.35951,0.20159,0.71164,0.023047,-0.3851,-0.078977,0.32912,0.27812,0.45659,-0.25756,0.15054,0.22707,0.25259,-0.28293,-0.69111,0.125,-0.23206,-0.51252,0.12513,0.30364,0.60968,0.27814,-0.33409,0.099515,-0.002485,-0.1045,0.099559,-0.2575,-0.002485,0.09957,0.074062,-0.13001,-0.002461,-0.078972,0.023023,0.17609,-0.12999,0.048536,0.074038,0.048561,-0.10448,-0.078972,-0.28298,0.074044,1.1706,-0.23203,-0.589,0.27805,-0.25746,0.48209,0.099564,-0.61446,-0.43607,0.35453,0.073995,0.25253,0.022998,-0.23191,-0.30847,0.71172,0.09957,-1.0227,0.96676,0.30359,0.12507,0.074026,0.20159,-0.07899,-0.30855,-0.30854,-0.53812,-0.053482,-0.41057,-0.002472,-0.053482,0.30363,0.099583,0.27813,0.45664,0.023029,0.17609,0.048531,-0.05347,-0.027962,-0.10449,0.099534,0.023041,0.15051,-0.053451,-0.33399,-0.2575,-0.15551,0.074002,0.20152,-0.56349,0.40558,0.60963,-0.053451,-0.76749,-0.64003,1.196,1.0176,-0.078953,-0.48697,-0.58898,-0.35946,-0.23199,0.15056,0.227,0.55862,0.38017,-0.41058,-0.5891,0.12507,0.25252,0.099521,-0.078898,1.4003,0.48205,-0.74211,-0.79312,-0.25754,-0.18102,-0.38507,0.15059,-0.181,-0.078959,0.074062,0.074062,0.20158,0.35461,0.20159,-0.13004,-0.027969,0.53318,0.43109,-0.35953,0.15054,-0.58908,-1.2266,-0.027998,0.15054,1.0177,0.30353,0.023017,0.048531,-0.487,-0.2065,0.048567,-0.23197,-0.15544,-0.05347,-0.002491,0.27806,0.023041,1.0942,-0.56365,-0.28298,-0.002405,0.45667,-0.33402,-0.25751,-0.13003,-0.33409,0.099534,-0.181,0.6097,0.38016,0.22708,-0.56359,-0.46159,-0.079014,-0.33405,0.43116,0.048561,-0.053482,-0.13001,0.2781,0.099637,-0.23199,0.53306,-0.12998,-0.10452,-0.002461,0.099577,-0.64001,0.25259,0.099528,0.15052,-0.028029,-0.41046,0.81357,0.35458,0.45656,-0.43593,-0.28297,-0.20653,-0.12997,-0.66556,0.023047,0.25254,0.40558,-0.079008,0.099588,-0.0535,-0.15543,0.25246,0.15053,0.38016,-0.35952,0.15065,0.30363,0.17612,0.023041,-0.15551,-0.58912,-0.33406,-0.10452,0.048543,-0.002503,0.099534,0.12509,-0.43596,0.68424,0.63323,0.1232,0.021195,-0.029808,0.1232,-0.283,-0.078959,0.35461,0.023084,-0.58902,0.99214,1.4257,-0.35949,-0.69109,0.023047,-0.25751,-0.10447,-0.078886,-0.20643,-0.28302,0.073971,0.07402,0.099552,0.12502,-0.002479,-0.027962,-0.53806,0.25257,0.76267,0.38013,-0.15546,-0.46156,-0.35951,-0.181,0.25251,-0.18106,0.2782,0.17616,-0.002423,-0.43609,-0.53809,-0.028036,0.48205,0.17599,-0.181,0.099601,-0.10443,0.048634,0.38013,-0.027931,-0.20652,0.2525,-0.10447,0.15056,0.50757,0.8136,-0.078972,-0.33401,-0.79301,-0.436,-0.18102,0.023035,0.22708,0.25253,-0.33399,0.09954,-0.18101,0.12503,0.32915,0.023047,0.43108,-0.053482,-0.18097,-0.38503,-0.078966,-0.13002,0.25253,-0.46157,-0.28303,0.60972,0.35467,0.71168,-0.18101,-0.002472,-0.56363,-0.41058,-0.43603,0.20159,0.32917,0.048555,-0.002552,-0.181,0.12504,0.15058,0.17607,-0.10448,0.15056,0.50757,-0.028011,0.048525,-0.23193,-0.56354,-0.13001,0.099546,0.20155,0.53308,-0.23198,-0.23199,-0.027987,0.20156,-0.053464,-0.15553,-0.30855,-0.07899,0.22712,0.099595,-0.25745,-0.35954,0.55861,0.60962,-0.10454,-0.10447,0.12513,-0.053397,-0.56365,0.12507,-0.69109,0.17606,0.074038,0.55873,0.022968,0.48201,-0.28298,0.25253,-0.64006,-0.69105,-0.002485,0.53308,-0.20644,-0.1045,0.50763,0.48218,0.15058,-0.15551,0.023041,-0.56356,-0.079008,-0.48705,0.25257,0.48211,0.30353,0.048525,-0.20649,-0.027907,-0.002443,-0.12998,0.30353,0.58405,-0.334,-0.078923,-0.33401,-0.79313,0.50768,0.58414,0.048561,-0.053519,0.048494,-0.56358,0.074111,0.60963,-0.027987,-0.28298,-0.12998,0.30357,0.17601,-0.13,-0.35959,-0.2065,0.074106,-0.053562,0.50768,0.17615,0.63521,-0.20653,-0.38505,-0.2065,-0.33408,-0.25754,-0.02795,0.43117,0.25256,-0.002472,0.25259,0.584,-0.51255,-0.56352,-0.12995,0.2271,0.43111,-0.43609,-0.10443,0.048567,0.63518,0.58408,-0.38503,-0.71659,-0.25751,0.38003,-0.079033,0.25262,0.099559,-0.002448,-0.20645,0.20153,0.30356,-0.002405,0.074044,-0.23199,-0.43602,-0.51261,-0.3596,0.099528,0.43113,0.58419,0.17607,0.048536,-0.18092,-0.92061,0.45663,0.91564,0.20158,-0.53809,-0.23201,0.17602,-0.10449,-0.30855,-0.12996,-0.30842,0.48213,-0.002418,0.17607,0.22704,0.25252,-0.027974,-0.58902,0.099534,0.023035,-0.027944,-0.38502,-0.25753,0.32907,0.78817,0.63517,-0.436,-0.53807,-0.20653,-0.43606,-0.079033,0.023059,0.58412,-0.28301,-0.078928,0.15049,0.30361,0.35474,0.22712,-0.66567,0.074057,0.17606,0.02298,-0.25754,-0.25754,0.15059,0.099595,0.58419,0.50771,-0.07891,-0.89519,-0.02806,-0.18103,-0.002461,-0.20653,-0.18101,-0.15545,0.35465,0.30363,-0.28301,-0.13002,0.83919,-0.5124,0.15052,1.2471,0.048512,-0.94611,-0.86949,-0.53805,0.22706,0.4311,0.17606,0.30358,-0.18098,0.15052,-0.33398,0.048525,-0.002516,0.09954,-0.13005,0.30361,-0.027895,0.17612,0.023041,-0.10449,-0.1045,-0.002454,-0.4106,0.53318,0.023072,0.12506,-0.10456,0.023065,-0.48706,-0.28306,0.5842,-0.10447,-0.13002,0.40565,0.023065,-0.23198,-0.15543,-0.1045,0.55859,0.81363,-0.10445,-0.35956,-0.41051,-0.25753,-0.33404,-0.56347,0.20156,0.30361,0.482,0.40563,-0.41046,-0.25753,-0.053458,0.12504,0.22705,0.27805,-0.12998,-0.15549,-0.10447,0.22708,0.074044,-0.13,-0.33401,-0.15548,0.023103,0.71162,0.58411,-0.46155,0.023072,-0.1809,-0.61462,-0.23202,-0.002534,0.40566,-0.20653,-0.027944,-0.43606,0.02295,0.20157,0.17605,-0.30854,-0.30854,0.048531,0.43111,0.58418,-0.38495,-0.30839,0.38013,0.38005,0.022968,0.32898,-0.51252,-0.33399,-0.28301,-0.4615,0.43112,-0.18098,0.58405,-0.053427,-0.23203,0.074044,-0.027925,-0.07899,0.12505,0.12504,-0.23202,-0.25742,0.023041,0.40558,0.048549,-0.28306,0.30362,-0.43601,0.09957,0.2015,-0.027931,0.20159,-0.002491,-0.18106,0.048536,-0.48709,0.20163,-0.10445,0.40558,0.099515,-0.07899,-0.53806,-0.64007,0.48223,0.53321,0.55862,0.02295,-0.35956,-0.078972,-0.002497,0.37998,0.32904,-0.58897,-0.23198,-0.078947,0.023127,-0.12993,0.45654,0.27805,-0.71651,0.20157,0.12504,0.40556,0.38006,0.45662,-0.12998,-0.1045,0.048536,-0.25753,-1.1501,-0.35947,-0.002491,0.81355,0.48214,0.78819,-0.05339,-0.35948,-0.69113,-0.23202,0.20152,-0.10447,-0.078977,0.2526,0.17607,-0.13003,0.17609,-0.10456,0.27812,-0.002418,-0.61458,-0.078996,0.20157,0.17605,0.074026,0.048585,0.074087,0.2016,-0.053495,-0.33409,0.58409,0.55864,-0.12988,-0.20644,-0.48705,-0.81865,-0.002534,0.94112,0.22712,-0.002485,-0.2575,-0.30851,-0.15549,0.074038,0.43108,-0.58915,0.32913,0.3037,0.45664,0.27806,0.099583,-0.43605,0.15049,-0.053415,-0.43609,-0.33407,0.20158,0.023059,-0.28302,0.074081,0.35461,0.4566,0.074093,-0.12999,0.023041,0.12503,-0.20653,-0.002479,0.022998,-0.71664,0.17609,0.86478,0.89029,-0.053451,-0.99716,0.12498,-0.20653,-0.48708,0.023041,0.099583,0.35461,0.27808,0.12508,-0.078996,0.048536,-0.487,-0.30853,0.12502,0.048585,0.17609,0.048549,-0.027993,0.43113,0.074093,0.048536,0.048512,-0.33403,-0.58908,-0.48713,0.48211,0.40563,-0.18098,0.43118,0.25262,-0.25749,-0.25754,0.022931,-0.13002,-0.078959,0.2526,-0.28298,0.25257,0.58417,0.15063,0.40559,0.63506,-0.71662,-0.64001,-0.3085,-0.61452,-0.35954,0.63501,0.27806,-0.46152,-0.38499,0.20155,0.25259,0.25259,0.15056,-0.078923,-0.10447,0.074044,0.35455,0.074008,0.15056,-0.20645,0.17616,-0.35949,0.22701,0.32896,-1.0481,-0.64009,-0.35952,1.0178,0.78827,0.12507,-0.56362,-0.74212,-0.15557,0.55858,-0.027938,0.023072,0.20156,-0.20642,-0.15547,-0.28308,0.50759,0.66069,0.048616,-0.41058,-0.13,-0.56352,0.27816,0.43105,-0.053476,-0.3595,0.22702,-0.079057,0.048543,0.2526,-0.30849,-0.15548,0.32905,0.38011,-0.79302,0.25257,-0.35951,0.048536,-0.028139,0.074051,-0.07883,0.50773,0.89021,-0.56366,-0.6146,-0.43603,0.12503,-0.23202,-0.23208,-0.41059,0.12505,0.35471,0.32915,-0.13007,0.12506,1.0433,-0.23203,-0.5891,0.099577,0.04858,-0.48711,0.12504,0.30359,-0.33396,-0.69115,0.099583,0.50762,0.15054,-0.002479,-0.25746,-0.28305,-0.027962,0.17607,0.35464,0.074062,-0.002472,0.27804,0.48205,-0.027907,0.09954,-0.79305,-0.30854,-0.05347,0.329,0.099528,0.074062,-0.12994,0.15055,0.53318,0.27813,0.2526,-0.53809,-0.43612,-0.53811,0.20156,0.17608,-0.15541,0.32906,0.15057,-0.23207,-0.48707,0.15058,0.27812,-0.027938,-0.33404,0.20159,0.048543,0.38017,0.30354,-0.00251,-0.48706,0.2781,-0.41051,-0.86966,-0.30855,0.35462,0.22712,0.94111,0.55856,-0.20646,-0.58901,-0.4615,0.048536,0.27808,-0.46147,0.25257,1.0687,-0.079039,0.074038,-0.28298,-0.10446,0.074033,0.12502,-0.027913,-0.28301,-0.20653,-0.15552,-0.28306,0.45666,0.89024,-0.07883,-0.10447,-0.079075,-0.41066,-0.43598,0.25258,0.32905,-0.33402,-0.64012,0.25263,0.20161,0.074026,0.17607,0.023065,0.25259,-0.28303,-0.33404,-0.30844,0.53312,0.099479,-0.13002,0.023047,0.27822,0.30359,0.55858,-0.1555,-0.027925,-0.15553,-0.94615,-0.10455,0.40551,-0.12999,-0.35946,0.023084,0.25261,0.2016,-0.1045,0.2271,0.07402,0.023072,-0.027913,-0.12998,0.43108,-0.12998,-0.33408,0.22705,0.83909,0.074051,0.20163,-0.64011,-0.12984,-0.23196,-0.41053,-0.35963,-0.18105,0.12505,0.32908,0.50759,0.48217,-0.12993,-0.69112,0.30356,0.22708,-0.25748,-0.28299,0.3291,-0.25753,-0.10447,0.17607,0.04858,-0.15548,0.329,-0.078959,-0.30847,0.83907,0.17605,-0.33393,-0.15546,-0.46151,0.40554,-0.56355,-0.027993,-0.41061,0.4057,0.58424,-0.15551,-0.35962,-0.0535,0.5842,-0.25756,-0.20655,0.12505,0.30361,-0.20648,0.048543,0.17614,-0.20652,0.099521,-0.18103,-0.71656,0.15062,0.20158,-0.283,0.12499,0.50759,0.20163,0.073959,0.074087,-0.002394,0.17609,-0.81859,-0.48705,0.83906,1.0432,-0.58903,-0.38495,0.048482,-0.053458,0.074069,0.048573,-0.078935,-0.10452,-0.027931,0.25252,-0.15553,-0.46154,0.099515,0.73715,0.50766,0.6352,-0.33402,-0.76765,-0.028005,-0.002491,-0.078972,-0.053476,-0.5635,0.6607,-0.13002,-0.2065,-0.002467,-0.25751,-0.20653,-0.028018,-0.002485,0.40557,-0.053421,-0.20648,0.83922,1.2983,-0.66551,-0.51252,-0.53808,-0.66561,-0.33407,1.3236,0.3291,-0.38503,0.023065,0.074038,-0.61453,-0.02795,0.55856,-0.334,-0.28294,0.43112,0.48211,-0.35953,-0.30856,0.048561,-0.10454,-0.053464,0.43112,-0.23209,-0.053397,0.25258,-0.053476,-0.15549,0.074057,-0.48703,-0.079033,-0.51257,-0.35959,0.43117,0.5332,0.76271,-0.079002,-0.18101,-0.61458,-0.20656,0.32907,0.55863,-0.15546,-0.71655,-0.33395,0.35461,0.40562,-0.13004,-0.15553,0.15054,0.099534,-0.10446,0.15049,-0.078953,0.048536,-0.51257,-0.12988,-0.02792,-0.078898,0.43105,0.81352,-0.48708,-0.41055,-0.28303,-0.30849,0.22715,0.32915,0.15051,-0.20653,-0.13,0.60968,-0.10447,0.12507,-0.56358,-0.002534,-0.48713,0.12508,0.5842,0.50774,-0.33402,-0.053458,0.43107,-0.15547,-0.38514,-0.64015,-0.71655,0.45672,0.3036,0.3291,-0.53808,-0.25754,0.38005,0.023005,0.099577,-0.1299,1.3747,-0.20644,-0.71652,-0.43606,0.12502,0.048531,-0.23197,-0.002454,0.60962,-0.2065,-0.18099,0.12503,-0.35946,0.4821,0.022992,-0.1045,-0.38499,-0.078941,0.30358,-0.053519,-0.13,0.3546,0.023035,-0.64009,0.073977,0.63528,0.55869,0.20159,-0.15557,-0.25753,-0.33401,-0.15543,-0.028047,0.22705,-0.15551,0.099632,-0.02798,-0.053525,0.048518,-0.1045,-0.027938,-0.078966,0.12511,0.074062,0.71157,0.15054,-0.69092,-0.30849,-0.30854,0.6606,0.022937,-0.64003,-0.4105,0.30357,0.099552,0.023041,-0.027944,-0.18101,0.099559,-0.283,-0.18105,0.45666,0.35464,0.53312,-0.027962,-0.38506,-0.51263,-0.66558,-0.41057,0.9158,0.35463,-0.15555,-0.28311,0.38011,-0.053433,0.17611,0.023035,-0.30857,-0.20653,-0.053421,-0.1555,0.20159,0.15065,0.38005,-0.53811,0.27815,-0.002443,0.09954,-0.23196,-0.00251,0.63503,-0.002479,-0.10448,-0.30852,-0.2575,-0.48697,0.048585,0.15057,-0.30846,0.074044,0.15054,-0.18102,0.25259,0.30357,0.20155,-0.20654,-0.078959,-0.078917,-0.18099,-0.4615,0.022998,0.17603,0.27806,0.22705,0.20159,0.099559,-0.30849,-0.97159,-0.053549,0.38011,0.53319,0.89032,0.099461,-0.89522,-0.18097,0.25257,0.27817,0.023035,-0.43607,-0.13006,-0.25751,0.048536,-0.1045,-0.12999,-0.38508,1.2729,0.76269,0.07402,-0.51255,-0.7166,0.022998,0.27813,-0.002485,-0.002497,0.048536,-0.35949,0.32908,0.53312,-0.25747,-0.35948,0.22702,-0.58901,-0.18098,0.81362,0.023029,-0.30849,-0.078996,-0.053482,-0.15548,0.023047,0.099528,0.17603,0.38011,-0.12999,-0.12995,-0.053495,-0.053519,-0.2065,0.023096,0.25264,0.30358,-0.33413,-0.53814,0.35464,1.0689,-0.51248,-0.7676,0.048469,-0.002479,-0.13001,0.022925,0.048476,0.27811,0.38017,-0.25743,-0.053397,0.12508,0.48203,-0.027993,-0.41049,-0.25753,0.22711,-0.33398,-0.20654,1.1451,0.22711,-0.12998,-0.25749,-0.33401,-0.23197,-0.64002,0.27808,0.50765,0.15055,-0.1045,0.099528,-0.053427,-0.15551,-0.027913,0.35464,0.25258,-0.053513,-0.15554,-0.38505,-0.51265,0.99221,0.22712,-0.18096,-0.58903,-0.23204,0.1761,0.7627,-0.002491,-0.30856,0.099601,-0.35951,0.86467,0.81379,-0.028042,-0.66566,-0.81866,-0.51257,-0.12993,0.89017,-0.002472,-0.12995,-0.10445,-0.027987,0.53311,0.17607,-0.002485,0.048531,-0.053402,0.023017,0.17606,-0.232,-0.61456,-0.12993,0.048561,0.20153,-0.10452,0.12505,0.12502,-0.1045,-0.43601,0.023096,-0.1555,0.4311,0.17603,0.099534,-0.35951,-0.30852,0.58405,-0.30839,0.73719,0.68618,-0.18109,-0.20645,-0.86965,-0.74216,0.30362,0.50765,0.48211,-0.181,-0.76769,-0.25752,0.27816,0.12505,0.15056,-0.15553,0.48215,-0.002423,0.2271,0.30357,-0.002467,0.023047,0.22706,0.048506,-1.0481,-0.23197,-0.20655,-0.002503,0.35459,0.76278,0.27812,-0.13007,-0.20652,-0.58903,0.30357,0.83905,-0.41051,0.32905,0.023035,-0.6655,-0.15543,0.048561,-0.078941,-0.078928,0.38005,0.0485,-0.35951,-0.13004,0.12505,0.074051,0.35461,0.099564,-0.15549,-0.35955,-0.28305,-0.0535,0.91581,0.96682,-0.00243,-1.0738,-0.181,0.023017,-0.18101,-0.38506,-0.28303,-0.079008,0.1251,0.43115,0.3546,0.048543,0.048543,0.30351,-0.002443,-0.078972,-0.38499,-0.25745,0.074033,-0.51252,0.17604,0.5331,-0.078977,0.048531,-0.078996,-0.027962,-0.64001,-0.027987,0.25253,0.20153,-0.027969,-0.41051,0.3801,0.60959,-0.46147,-0.28301,-0.51259,0.32915,0.4567,0.40567,-0.25755,0.3546,-0.002491,-0.23204,-0.53814,0.2526,-0.33404,-0.41057,-0.18099,-0.2065,0.074057,0.15048,0.35462,-0.12989,0.89032,0.32915,0.17604,-0.25754,-0.53806,-0.46159,-0.15548,0.022992,0.60957,0.17611,-0.58904,-0.053464,-0.33396,0.60964,0.71165,0.17603,-0.61458,-0.33402,-0.027962,0.074051,0.30356,0.023054,-0.6655,0.27809,0.17604,-0.10453,0.30355,0.1761,-0.28304,0.4822,0.22715,-0.002467,0.22711,-0.30854,-0.28304,0.074087,0.2526,-0.35962,-0.20656,-0.18096,0.3546,-0.027993,0.048536,-0.10439,0.099515,0.81362,-0.51247,-0.12998,0.17602,-0.002454,0.12505,-0.23197,-0.28302,0.53307,-0.053488,-0.10448,-0.18097,-0.078953,-0.10447,-0.12996,0.50755,-0.053458,-0.002467,-0.079026,-0.30849,-1.3543,0.30359,1.2729,0.66075,0.3036,-0.51259,0.074033,-0.053555,-0.58919,-0.64015,-0.15551,0.45673,0.20163,0.27815,-0.12995,0.048476,-0.20653,-0.053482,-0.28298,-0.18094,0.38003,0.048585,0.15056,0.66056,-0.23195,0.20158,-0.28299,-0.38501,-0.41051,-0.028018,0.12505,0.30361,0.40569,0.48207,-0.10454,-0.23202,-0.41057,-0.66556,-0.15551,0.02301,0.78818,0.35462,0.023054,-0.61458,0.43117,-0.078984,0.20159,-0.053476,0.048531,-0.53811,-0.28305,-0.078984,0.38013,0.25265,0.53318,-0.51257,-1.1246,0.35453,0.27805,0.55868,0.2526,-0.48706,-0.28305,0.022956,0.22708,0.27819,0.27809,-0.61455,-0.35951,-0.027944,0.35452,0.12497,-0.46153,-0.4361,-0.05347,0.25271,0.32917,0.48209,1.0176,-0.56353,-0.436,-0.10449,0.099559,-0.20649,0.048543,0.15052,0.45662,-0.10447,-0.1045,-0.1045,-0.10448,-0.12999,0.30362,0.048561,-0.13002,-0.18109,0.4567,0.4312,-0.33405,-0.43605,0.022998,0.099528,-0.18101,-0.4871,0.15059,0.27812,0.048561,-0.027969,0.048531,0.15056,-0.20653,0.15055,0.099552,0.58409,-0.61453,0.17614,0.17608,0.074044,-0.56361,-0.43605,0.27809,0.25256,-0.1045,-0.181,0.099546,0.17606,-0.1045,0.22709,0.38013,-0.078972,-0.10449,-0.69105,0.09957,0.15054,0.023035,0.022998,0.22708,0.023047,0.15057,-0.35954,-0.43611,0.35464,0.32915,-0.027987,0.35455,0.17612,0.17616,-0.48705,-0.20655,-0.69118,0.50768,0.074057,-0.0535,-0.181,-0.18098,0.04858,-0.079033,0.27808,0.3801,0.66071,0.048585,-0.078984,0.20154,-0.79311,-0.283,-0.25753,0.27803,0.35457,-0.10443,-1.048,0.27801,0.86461,0.43115,1.1963,-0.41049,-0.7421,-0.43598,-0.74205,-0.33411,-0.002467,0.30363,-0.028023,-0.61466,0.50762,0.71175,0.25261,0.27811,0.074062,0.048543,-0.002479,-0.10452,-0.20656,-0.58909,-0.41057,-0.053421,0.023072,0.17604,0.20155,0.22708,0.48215,-0.10452,-0.20649,-0.38499,-0.1554,0.17598,0.12497,0.43107,-0.002405,-0.23197,-0.15551,-0.12998,-0.053482,-0.15553,-0.23196,0.32915,0.09954,-0.1045,-0.078966,0.43106,0.32907,-0.61452,-0.51261,0.45669,0.60976,0.40566,0.12502,-0.35956,-0.69117,-0.25756,-0.18103,-0.05347,-0.15546,0.32906,-0.10447,-0.10445,0.074075,0.68624,0.60974,0.22701,-0.10459,-0.28306,-0.002412,-0.33399,0.30358,-0.079014,0.074062,-0.181,-0.4361,0.22713,0.40564,0.099619,-0.2065,0.048433,0.25256,-0.35954,-0.385,0.17598,0.63517,-0.12994,-0.46154,-0.436,-0.078972,-0.002497,0.2016,0.17612,0.32912,0.6352,-0.25752,-0.20652,-0.15553,-0.25757,-0.23206,-0.002516,-0.69116,0.22708,0.83925,0.60973,0.32915,-0.58898,-0.33404,-0.13005,0.073959,0.20152,0.048512,-0.027962,-0.002472,0.3036,-0.053421,0.074062,-0.20651,0.15063,0.2781,-0.23203,0.15054,0.099528,-0.51254,-0.23201,0.02301,0.20155,0.3546,0.099521,-0.078959,-0.20646,0.023029,0.074026,0.30364,-0.15549,0.048549,0.63515,-0.5125,-0.76758,0.074038,0.38008,0.22702,-0.53811,-0.35954,0.30356,0.15054,-0.23196,-0.078972,0.43114,0.27811,0.43113,0.9923,-0.027925,-0.61455,-0.79318,-0.10457,-0.027987,-0.51254,-0.20656,-0.13005,0.50768,0.5077,0.40563,-0.15548,-0.56357,-0.33401,0.48211,0.17601,0.048549,-0.38504,0.022986,-0.027938,-0.10445,0.3801,0.32903,-0.23197,-0.61449,-0.10445,-0.002467,0.12504,1.0686,0.35458,-0.13,-0.58904,-0.33397,0.099528,-0.027944,-0.002423,-0.28303,-0.35957,0.25261,0.32915,0.099546,-0.053525,0.2526,-0.3851,-0.002497,0.048561,0.023047,0.12507,-0.20646,-0.28305,0.15061,-0.053488,0.12504,0.048476,-0.079008,0.074044,-0.30851,0.20156,0.25258,0.15059,-0.41046,-0.33399,0.15059,0.53303,-0.027913,-0.43602,1.2471,1.2471,-0.5635,-0.56354,-1.0736,-0.02795,-0.053446,0.12504,0.278,-0.15549,-0.027938,-0.078953,-0.053476,-0.23209,0.35461,0.30363,0.30363,-0.43602,0.20159,1.2474,-0.1045,-1.0227,-0.28317,0.6605,-0.61458,-0.12993,-0.12989,-0.46156,0.40564,-0.053439,0.45661,0.12509,0.38013,0.20158,0.20161,-0.28303,0.12504,0.22707,-0.078984,-0.13006,-0.38499,-0.51257,-0.41047,0.43108,0.20155,0.27804,0.38006,0.022992,0.074142,-0.12994,-0.38498,-0.43601,-0.15549,0.20153,0.27809,-0.64018,0.38012,0.63521,0.43115,-0.25755,0.048512,0.074075,-0.43607,-0.30854,-0.12998,-0.10452,0.074038,0.074149,0.12504,0.63515,0.30362,0.023023,-0.35952,-0.71658,-0.002454,0.32908,-0.18102,0.048531,-0.10448,-0.028005,0.45659,-0.20649,0.099552,0.22707,-0.51244,0.81359,-0.002448,-0.61451,-0.46155,0.30363,0.2526,-0.10454,0.17603,-0.12996,-0.43597,0.176,0.81375,-0.078996,0.074033,-0.10451,-0.48711,-0.053476,0.22712,-0.053427,-0.30856,-0.15553,0.45673,0.71171,0.20152,0.074013,-0.3595,-0.58911,-0.13003,-0.079008,0.45666,-0.027931,-0.002436,0.22704,-0.1045,0.3036,0.25261,-0.1045,-0.18098,-0.25748,0.099528,-0.181,0.38006,0.4821,-0.38503,0.20154,0.17607,-0.053384,-0.35947,-0.18103,-0.20656,0.25256,-0.23203,-0.12999,0.074062,0.25261,0.76273,0.48207,-0.6911,-0.74213,0.27814,-0.30851,-0.61462,0.20157,0.3036,0.074081,-0.46161,0.023023,0.074038,0.22704,0.32912,-0.23196,-0.28295,-0.053446,-0.48705,0.35455,-0.028029,0.35461,0.68624,0.27811,-0.13005,-0.61457,-0.7676,-0.13,-0.20652,0.12506,0.20156,-0.10446,0.30363,0.66056,0.2781,-0.28295,-0.58906,-0.38505,0.32908,0.4567,0.074062,-0.053495,0.20153,-0.28306,-0.38502,-0.1045,0.40561,0.22701,-0.10451,-0.51249,0.12504,-0.002472,0.12504,0.22713,0.15063,0.25254,-0.23204,-0.15552,0.2016,0.074044,-0.23198,-0.74209,0.15053,0.073977,-0.13002,0.074075,0.22704,-0.05347,-0.46154,0.25263,0.3801,0.2016,0.048598,-0.1045,0.17608,-0.23205,-0.30852,-0.15553,-0.15546,0.22708,0.40551,0.30355,-0.20648,-0.38503,-0.63996,0.023072,0.6861,0.12504,-0.283,-0.13001,-0.053488,0.12508,-0.002461,0.15053,0.023072,-0.71666,-0.002374,0.074118,1.0177,0.099521,-0.4106,0.0485,0.099546,-0.18096,0.074106,-0.10451,-0.10448,-0.56359,-0.30856,0.5587,0.45666,0.17609,-0.41064,-0.078996,-0.28303,-0.10443,0.099552,0.12504,0.5331,0.12505,0.074093,-0.30852,0.45657,-0.61449,0.12509,-0.10449,-0.20653,0.20155,-0.027944,0.20158,-0.18103,0.17603,0.20158,0.2526,-0.18107,-0.48708,0.048592,0.43119,-0.078977,0.25254,-0.02798,-0.30851,-0.35953,-0.15548,-0.027969,-0.35956,-0.027987,0.30356,0.074093,1.0942,0.50766,-0.25748,-0.027907,-0.56354,-0.69108,-0.20653,0.09951,0.40558,0.048518,-0.25758,0.048531,0.04858,-0.002461,-0.61454,-0.38506,0.71173,0.78821,0.60968,0.15054,-0.23202,-0.76765,-0.43604,-0.10449,0.15057,0.1506,-0.181,-0.20648,-0.10452,0.53311,0.22704,-0.30848,-0.181,0.17609,0.12505,0.17606,0.35468,0.17609,-0.33409,-0.079081,0.074038,-0.18098,-0.41057,-0.58911,0.83926,0.5587,0.30368,-0.23203,-0.33409,-0.33409,-0.46156,-0.028005,0.074081,0.20156,-0.18096,-0.053451,0.50759,0.17608,-0.46147,0.40565,0.76258,-0.20652,-0.56351,-0.18105,0.099559,-0.23199,0.27811,0.023059,-0.51253,-0.079051,0.30361,-0.13004,0.45658,0.22708,-0.027925,-0.94623,0.30362,0.074044,0.35465,0.12513,0.3801,-0.41057,-0.61458,-0.053544,0.32908,-0.027974,-0.002443,-0.053446,0.12505,0.048567,-0.33404,-0.38508,0.074051,0.25263,0.45664,0.5076,-0.38505,-0.078972,-0.33399,-0.12997,0.27808,-0.027944,-0.053495,-0.53803,-0.25752,0.73718,0.15049,-0.35954,0.17606,0.17606,0.50754,-0.18099,-0.487,-0.002467,-0.76766,-0.38494,0.8648,0.68617,-0.2575,-0.23206,-0.23207,-0.41053,-0.13003,0.074051,0.25259,0.58423,-0.20645,0.25251,-0.5891,-0.28307,-0.38507,-0.15551,0.30366,0.38016,0.12509,0.048549,-0.15546,0.30358,-0.028023,-0.33406,0.25259,0.15059,-0.232,-0.53807,-0.23194,0.3801,0.22705,0.43118,0.25259,-0.28306,-0.33401,0.15049,0.63506,0.55853,-0.487,-1.2521,-0.38497,0.048512,0.12509,-0.20653,1.0432,0.55858,0.22715,-0.46151,-0.18099,-0.74204,0.023084,0.53299,-0.25755,0.40563,0.12505,-0.079002,-0.74219,-0.25743,0.35457,0.78833,0.074081,-0.002479,-0.13004,-0.69117,-0.51258,0.43112,0.60959,-0.76761,-0.74211,0.38013,0.60974,0.45672,0.099528,-0.38506,0.099491,0.02301,-0.38504,-0.053519,-0.002436,0.15054,-0.053427,0.35459,0.023084,-0.3595,-0.027956,0.30351,-0.30852,-0.002387,0.71162,0.22699,-0.64006,0.048561,0.35456,-0.15548,-0.41053,-0.35951,-0.20653,0.43112,0.45664,-0.10448,-0.20652,-0.23202,0.60972,0.60969,0.2781,-0.38506,-0.84414,-0.3596,0.12501,0.17603,-0.027962,-0.002412,-0.12999,0.099528,0.25271,-0.002454,0.09951,-0.66563,-0.4361,-0.027925,0.91571,0.68609,-0.28302,-0.30852,-0.46152,-0.48702,0.32912,0.43108,0.099552,0.074033,0.12504,-0.053464,-1.0736,0.76269,0.27807,-0.25754,-0.053384,-0.027987,0.32899,-0.33405,-0.30854,0.2271,0.25267,0.50771,0.17613,-0.53809,-0.23204,-0.12999,-0.30859,-0.027969,-0.18098,-0.18104,0.074038,0.40566,-0.027993,0.09957,-0.079014,0.20159,0.20158,0.099588,-0.35947,0.074087,0.099546,0.22703,-0.18103,-0.35953,0.43113,0.099521,-0.53803,-0.56358,-0.10451,0.12504,0.023047,0.73711,0.63515,-0.20646,-0.64006,0.27811,-0.002461,-0.079021,0.73708,0.30358,-0.64004,-0.43598,-0.28306,0.023072,0.22708,0.22712,-0.18102,-0.23204,0.023054,-0.23203,0.22708,0.20155,0.12505,-0.02798,0.27812,-0.23204,-0.15553,-0.2065,0.048573,0.22707,0.12501,0.15064,-0.002454,0.5077,-0.18098,0.12505,-0.20653,0.048487,-0.028029,-0.12996,-0.2575,-0.232,0.099515,0.12505,0.5076,0.25256,-0.53802,0.2526,0.15063,0.023035,0.12511,-0.64013,-0.53812,0.30361,0.58417,0.48212,-0.43609,-0.28298,-0.053464,-0.13003,-0.15554,0.15056,-0.23203,0.30362,0.43117,-0.002448,-0.74206,0.07402,0.30358,0.20155,-0.12996,0.12507,0.27805,-0.43607,-0.002454,0.20156,0.40568,-0.10452,-0.41057,-0.61462,-0.30847,-0.002454,0.55859,0.17605,0.48216,-0.053495,-0.30853,-0.38502,0.1761,0.2526,0.099559,0.20153,-0.2575,-0.48697,-0.027998,-0.41055,0.55862,0.45655,0.38013,-0.74212,0.17611,0.20166,0.15059,-0.232,-0.56365,-0.15557,-0.10444,-0.10445,0.22706,0.73723,0.12511,0.023084,0.12503,-0.38507,-0.20657,0.023029,0.45662,0.35461,-0.41051,-0.43606,-0.15552,0.32908,0.048512,0.048512,-0.078959,0.12509
-0.078984,0.074051,0.099546,-0.078977,0.023035,-0.10447,0.09954,-0.053464,0.048549,-0.027969,0.074057,0.023023,-0.002479,-0.002467,0.074062,0.048531,-0.002443,-0.027974,-0.027956,0.048543,0.048543,0.099546,-0.002467,-0.12998,-0.10449,-0.053476,-0.027974,-0.078972,0.074057,-0.027969,0.12504,0.023047,0.17606,-0.078972,0.074038,-0.027974,-0.12998,-0.2575,-0.002472,0.15056,-0.078996,-0.1555,0.15056,-0.053464,0.15058,-0.027974,-0.053476,-0.053482,-0.053476,0.048536,-0.02798,0.048549,-0.027969,-0.002467,0.074062,-0.053476,-0.053476,0.074057,0.099546,-0.10449,0.023047,-0.078996,0.099559,-0.12999,-0.002461,-0.027969,-0.05347,0.17607,-0.10449,0.099552,-0.13,-0.002461,0.023035,0.074062,0.023029,0.023065,-0.05347,0.099564,-0.002467,-0.002467,-0.15551,0.023041,-0.02798,0.023041,-0.002467,-0.078972,-0.002479,-0.15546,0.12507,0.15057,-0.002479,0.023029,-0.053476,-0.10448,0.099552,-0.10447,-0.027969,-0.002461,-0.002467,0.099546,0.048561,-0.078996,-0.002448,-0.053488,0.023047,0.12505,-0.053464,-0.078953,-0.053476,0.17606,-0.002467,-0.002472,0.074057,-0.181,0.048543,-0.002454,-0.002479,-0.02795,-0.027969,-0.002467,-0.002467,0.12505,0.074062,-0.053482,-0.053495,-0.053476,-0.12999,0.023047,0.048561,-0.002479,-0.10449,0.023035,-0.02798,0.099559,0.074057,-0.027987,-0.41051,0.048536,-0.053488,-0.027969,0.17608,0.074038,0.074062,0.048549,-0.1045,-0.027969,-0.05347,0.12504,-0.027956,-0.078984,0.12505,0.023054,0.099552,-0.002461,0.048549,-0.002491,-0.002454,-0.002461,0.074051,-0.053464,0.023035,0.048525,0.048543,-0.002461,-0.027969,-0.027974,-0.053476,-0.027974,0.099546,-0.002448,-0.053482,-0.05347,0.048531,-0.10449,0.023041,-0.15549,0.074044,-0.10447,-0.078959,0.048543,0.074051,0.023017,-0.079002,0.048549,-0.027969,0.074062,0.048561,0.023047,0.15057,-0.181,0.099546,-0.053476,0.023035,-0.053482,0.023047,-0.027974,-0.05347,0.15056,-0.053476,0.074038,0.099559,0.023035,0.074062,-0.10449,-0.027969,-0.027962,-0.027987,0.048561,-0.002467,0.22707,-0.053488,0.023035,-0.02798,-0.027969,0.074051,-0.35949,0.25258,-0.002467,0.20156,-0.18103,0.074038,-0.027969,-0.027974,0.12505,-0.15546,0.1251,0.22712,-0.18103,0.048525,-0.002461,-0.10449,-0.38508,-0.25756,0.12509,0.20164,0.32915,-0.053495,-0.28308,-0.35957,0.074038,-0.027969,0.074026,-0.002461,-0.10447,0.27809,-0.33403,0.32915,0.17612,0.15059,-0.002479,-0.10452,-0.053482,-0.35958,-0.078977,-0.027962,0.048512,0.40557,0.30363,-0.18094,-0.181,-0.027969,-0.30849,0.35456,0.048531,-0.2065,-0.25751,-0.00243,0.074013,0.20159,0.074008,0.17604,0.023035,-0.078959,0.48214,-0.10447,0.5077,-0.51259,-0.61462,-0.10454,0.25262,0.17611,0.048536,-0.30855,-0.25757,-0.46156,0.048616,0.55864,0.78819,0.50763,-0.51259,-0.61459,-0.41044,0.43118,0.15048,-0.079045,-0.12997,-0.23202,1.3747,-1.1246,-0.30849,-0.30856,0.50754,-0.002338,0.023103,1.3492,-0.20652,0.96661,-0.63998,-1.3541,-0.71654,-0.53805,0.53318,0.023059,-0.35959,0.71163,0.83915,-0.079021,0.22701,0.15049,0.048487,-0.69114,-0.002423,0.099626,0.86476,-0.1299,-0.38501,0.022956,-0.28303,0.023059,0.023103,-0.20641,0.15054,-0.10454,0.2015,0.048487,-0.56361,-0.35954,0.2527,0.81382,0.9921,0.02301,0.43104,-0.56353,-0.84406,-0.97162,-0.25751,-0.33405,0.15061,0.17607,0.023072,0.17607,0.99226,1.1706,0.45656,-1.4051,-0.2065,0.22701,-0.027944,0.22707,-0.002472,-0.002436,-0.7675,-0.33399,0.073965,0.45661,0.12503,0.15056,-0.38504,0.22707,0.50757,-0.10445,-0.64005,0.099528,-0.28301,-0.078977,-0.23201,0.27809,0.20161,0.074051,-0.38506,0.55862,0.68619,-0.20643,0.048604,-1.2012,-0.38504,0.48209,0.099466,-0.76769,-0.5381,0.25254,1.1965,-0.1044,0.40554,0.55853,-0.46154,-0.51252,-0.538,0.07402,-0.20647,-0.15548,-0.23205,0.25258,0.58417,0.27806,0.63507,-0.18097,0.023078,0.074111,-0.38505,-0.23204,-0.078953,0.023023,-0.053476,-0.2065,-0.002472,0.048543,0.048512,-0.28303,0.17607,0.55867,0.43111,-0.13001,-0.38501,-0.35946,0.074038,-0.28302,0.17606,0.048567,0.30362,-0.078935,-0.25756,-0.002503,0.53313,-0.053488,-0.43607,-0.35948,0.6096,0.73713,-0.28297,-0.64001,-0.53803,0.099454,0.55858,-0.46148,0.023108,-0.5126,-0.027993,-0.15554,0.55866,0.53313,0.53319,0.22711,0.38021,0.35461,-1.1503,-0.89522,-0.10449,0.048555,-0.10446,0.022998,-0.53812,0.2526,0.1506,0.43114,0.074069,-0.20648,0.12507,-0.027987,0.30359,0.3801,-0.25745,0.22707,0.40549,-0.20652,-0.48701,-0.84401,-0.43603,0.22702,-0.053464,1.2471,1.1707,-0.30843,-1.2011,-0.079008,0.38,-0.43601,-0.43593,0.40565,0.15049,-0.2065,-0.18102,0.0977,0.40372,0.32721,0.021195,0.046696,0.22521,0.35272,0.1487,0.27814,0.074062,-0.15549,0.099588,-0.13001,-0.1045,0.81378,-0.078972,-0.51262,-0.48714,-0.23205,0.20158,-0.20656,-0.027944,0.63514,-0.18092,-0.002356,-0.385,-0.385,0.76254,0.45652,-0.56351,-0.18101,0.35455,0.86463,0.15066,0.45665,-0.25749,-0.66559,-0.48706,-0.35953,-0.078928,-0.51256,0.55864,0.074008,0.58414,0.12504,-0.56363,0.099528,0.53317,1.0688,0.55867,-0.25754,-0.25755,-0.41055,-0.33404,-0.46156,-0.23202,-0.18101,-0.18098,-0.15544,0.12504,0.48211,0.71167,0.40571,-0.76752,0.66053,0.48213,-0.30851,-0.002485,-0.20651,-0.53807,0.30363,0.43106,0.27814,-1.1756,0.099528,0.17599,0.07402,-0.46156,0.15056,0.32913,-0.027956,0.023047,-0.10449,0.38006,0.20157,-0.002374,-0.41058,0.35453,0.45661,-0.41045,0.32912,0.20164,-0.25751,-0.69117,-0.053476,-0.23205,-0.20653,0.12509,0.25259,0.048518,-0.053482,0.1505,-0.28303,-0.66564,-0.25761,0.17611,0.99234,0.53329,-0.12988,0.89004,0.48201,-0.28306,-0.84406,-0.13,-0.30846,-0.053476,-0.79306,0.3545,0.78807,-0.41048,0.20162,0.22705,0.45657,-0.33399,-0.15543,-0.20643,-0.51258,1.0686,0.17601,-0.4615,-0.33402,-0.41054,0.15059,0.35464,-0.10448,0.2271,0.45666,-0.027987,-0.20656,-0.66567,0.22704,0.099559,-0.18097,0.048585,-0.12994,-0.41057,0.15052,-0.53803,-0.181,-0.053439,0.60967,0.86463,-0.1555,-0.2065,-0.35954,-0.15546,-0.79302,1.2982,0.76254,0.023017,-0.23194,-0.18098,-0.15546,-0.053421,-0.46154,-0.64,0.32902,-0.079081,-0.38502,-0.002479,0.27808,0.023017,-0.12998,-0.053415,0.30355,0.32909,-0.10452,0.25257,-0.053482,0.12509,0.30365,-0.18098,-0.61463,-0.74217,-0.10446,0.48211,0.68629,-0.28308,-0.41054,-1.0481,0.32903,1.3491,0.89011,-0.33398,-0.25738,-0.48692,-0.28293,-0.79312,0.022974,0.66056,0.53309,-0.12998,0.048573,0.4311,0.023047,0.20155,0.22704,0.17606,-0.84405,-0.46147,0.40554,0.63508,-0.25755,-1.1247,-0.3339,0.35461,0.45664,-0.15554,0.023041,0.2271,-0.079026,0.022998,0.40562,0.074026,-0.20641,-0.38511,-0.25761,0.1506,-0.18093,-0.12998,0.12497,0.45649,0.04858,-0.38487,-0.15538,0.60961,-0.15547,-0.33401,0.17603,0.27805,0.89016,-0.74203,-0.28302,-0.053476,-0.64007,-0.51253,0.43106,1.1961,-0.38499,-0.18094,-0.38497,-0.25753,0.25255,0.15055,0.81368,0.35461,-0.33396,-0.027993,-0.079021,-0.48706,-0.51257,0.20159,-0.41061,0.58424,0.2271,0.78822,-0.13007,-0.079002,-0.28305,-0.23205,0.099515,-0.12998,0.22709,0.099577,-0.181,-0.10446,-0.41051,-0.28292,0.73711,0.38006,-0.15545,0.048585,0.20152,-0.69106,-0.46156,0.20159,-0.48705,0.7116,0.53312,-0.25748,0.15056,-0.69115,0.17603,0.32911,0.35457,-0.3595,-0.66548,0.38006,-0.38503,0.023065,0.35457,0.30358,0.048549,-0.078996,-0.35946,-0.10447,0.20155,0.35458,0.022992,-0.027944,-0.6146,0.25265,0.22712,0.20151,0.023005,-0.74211,-0.56348,0.048567,0.2781,1.0431,0.2781,0.22714,-0.30839,-0.4361,-0.053525,-0.74211,-0.23205,0.07402,-0.58902,0.55863,0.83916,0.099559,0.04858,-0.078953,-0.02792,0.32903,-0.64009,0.2527,0.1506,0.32906,-0.30862,-0.33401,-0.38509,0.099473,-0.10449,-0.027931,0.35466,0.2526,-0.078977,-0.10446,-0.41055,-0.028018,-0.23201,0.12507,0.76264,0.55867,0.15062,-0.1299,-0.436,-0.079088,0.25248,-0.58907,-0.71663,-0.43604,0.30365,0.63515,-0.46148,0.20153,0.073995,-0.079039,0.023041,-0.078941,0.074038,-0.283,-0.35952,0.48217,0.048531,0.38006,0.023054,0.86493,0.20162,0.25248,-1.3288,-0.6147,-0.81855,-0.64017,0.76261,0.09957,-0.61454,-0.053451,0.15062,0.22714,0.43115,0.8646,-0.20649,-0.23194,0.55861,-0.35947,-0.56352,-0.20647,0.25257,0.0485,-0.18101,-0.25754,-0.10449,0.12501,-0.20647,-0.41056,0.73712,-0.15543,-0.48695,0.91572,-0.38503,-0.43607,0.048592,0.30358,0.78821,0.20151,-0.56362,-0.53813,0.48221,0.50762,0.2526,-0.334,-0.56355,-0.43604,0.048543,0.71163,0.27812,-0.30855,0.22698,-0.10446,0.22704,-0.51248,0.023139,0.17612,0.25252,0.023023,-0.23198,-0.25758,0.55858,-0.028005,-0.053446,-0.84412,0.22721,0.89019,0.53317,-0.46157,-0.28307,-0.35958,-0.28306,-0.20641,0.89023,0.50762,-0.51255,-0.46158,0.20155,-0.1554,0.22709,-0.25756,0.40554,0.30373,-0.002338,0.1761,-0.23208,-0.13012,-0.028042,-0.86963,0.43106,1.5022,0.12502,-0.64002,-1.2521,0.22715,0.2016,-0.15551,0.35456,-0.18104,0.20156,0.17611,0.76257,-0.078941,-0.078904,0.099503,0.023005,-0.18103,-0.48702,0.023139,0.17609,-0.48706,-0.1045,0.4311,0.53311,-0.027974,-0.46153,-0.79318,0.63519,-0.027882,-0.1301,0.76261,0.023065,0.17608,0.023047,-0.10452,-0.43604,-0.56345,-0.027998,0.22706,-0.079008,-0.15551,0.15059,0.48204,0.27812,0.38016,-0.12993,-0.69104,0.22705,0.30355,-0.13005,-0.10445,0.71162,-0.20647,-0.74211,0.20164,0.048561,-0.1045,-0.053458,-0.20652,-0.53814,0.43121,0.94122,0.66067,-0.41061,-0.30852,0.27804,-0.10446,-0.64002,-0.053451,-0.002491,0.023017,0.074051,-0.027974,-0.027998,-0.43607,0.25268,0.22705,0.81378,-0.81854,0.15064,0.55845,-0.23203,-0.71658,-0.6401,-0.053506,0.20147,0.15051,-0.18097,0.53323,0.4311,-0.38495,-0.18101,0.20161,-0.64008,0.048573,-0.53803,0.12499,0.63509,0.099466,0.20157,-0.12994,0.30364,-0.38504,-0.61457,-0.18092,-0.15549,-0.3341,0.32907,0.48213,0.20159,-0.18101,-0.053495,-0.1555,-0.56358,0.71163,0.71168,-0.002423,-1.0481,-0.41049,0.94111,0.30352,-0.23201,-0.20648,-0.12989,-0.078923,-0.05347,-0.028036,-0.1045,-0.10446,-0.02792,0.89024,0.30355,-0.053525,-0.002516,0.20155,-0.58909,-0.53802,-0.12993,0.32904,0.125,-0.23199,0.45664,-0.12998,-0.4615,0.20164,0.43115,0.40549,-0.35959,-0.028011,0.55864,-0.38507,-0.71665,-0.2575,0.17607,0.20167,0.40569,-0.18108,0.073971,-0.38503,-0.18096,-0.053495,-0.10444,0.40561,0.86466,0.96685,-0.35949,-0.20652,0.099442,-0.28306,-0.51255,0.099466,-0.38502,-0.10445,-0.002399,0.048531,0.45653,0.09957,-0.20646,0.35471,-0.15545,-0.51254,-0.23205,0.38006,-0.15556,-0.20655,0.32909,0.60971,0.40564,-0.027993,-0.43607,-0.18101,-0.10448,0.023096,-0.078966,-0.35963,-0.05347,0.17612,0.78826,0.27812,-0.25759,-0.33413,-0.30846,-1.3031,0.66053,0.22697,0.20155,-0.13002,-0.027944,0.53313,0.48228,-0.15546,-0.002454,-0.10454,-0.436,-0.41054,-0.079021,-0.20652,0.099583,0.50764,0.12511,0.38,0.58403,-0.10451,-0.51249,-0.027956,0.63507,-0.64003,-0.69104,-0.61448,0.66073,0.30351,-0.35949,0.48218,-0.10449,0.22703,-0.1556,-0.20656,-0.64014,-0.28305,0.048549,-0.48711,0.48218,0.81373,1.1199,-0.4615,-0.66558,0.27802,-0.13007,0.074069,-0.66556,-0.53811,0.27805,0.38,0.22712,0.12512,0.099601,-0.25744,-0.078996,0.37998,-0.30849,-0.18101,0.25267,0.3291,0.63515,-0.5891,-0.69113,-0.66559,-0.2575,0.15055,0.43108,0.27806,-0.10447,0.048567,0.48213,-0.053378,-0.053329,0.15051,0.073953,-0.53809,-0.28302,-0.027974,-0.30851,0.66061,0.15068,-0.15545,-0.74216,-0.10455,0.6096,0.20158,0.48223,0.22711,-0.13002,0.023035,-0.48711,-0.15545,-0.15553,0.22709,-0.436,-0.00254,0.35457,-0.25753,0.27806,0.27809,0.17609,-0.48695,-0.66545,0.22705,1.0687,0.40554,-0.53804,-0.28307,-0.12997,0.074033,-0.078953,-0.81856,-0.33401,0.50754,0.7881,-0.15548,-0.15549,-0.23194,0.074057,0.3291,-0.027993,-0.15547,-0.10447,0.17609,-0.078892,0.40573,1.0941,-0.61461,-0.23207,-0.9462,0.15064,-0.15546,-0.41051,0.63516,0.60954,0.35455,-0.30851,-0.64011,-0.51257,0.20159,0.12505,0.60973,0.45668,0.176,-0.12998,-0.2575,-0.027998,0.30354,-0.48708,-0.15548,0.12513,-0.1555,0.6861,-0.027871,-0.002485,-0.028047,-0.28303,-0.69099,0.099608,-0.28301,0.32909,0.43103,0.15059,0.38002,-0.15553,-0.33401,-0.28297,-0.2575,-0.58909,0.17604,0.60963,0.38015,-0.18097,-0.6145,0.27808,-0.13001,0.53318,0.68615,0.22713,-0.28307,-0.33405,-0.20655,-0.1045,0.89011,0.099626,-0.84407,-0.48708,0.073971,-0.18098,0.32916,0.40561,0.023047,0.099552,0.099552,-0.33409,0.023005,-0.53801,0.4821,0.17608,-0.053421,0.27812,-0.002461,-0.079002,-0.30853,-0.027993,-0.079002,-0.10449,-0.10445,0.048543,0.43105,0.22706,-0.58905,-0.078892,-0.13002,-0.15546,0.074069,0.27812,-0.10445,0.022992,-0.30858,-0.13005,0.68613,-0.30847,-0.9717,-0.23199,0.48219,0.60973,0.63514,-0.71661,-0.28299,1.0941,0.63507,0.20164,-0.18096,-0.64005,-1.0227,-0.23205,-0.43607,0.17612,0.023017,-0.027956,0.048536,0.22711,0.22712,0.099552,-0.02798,0.22708,0.023023,-0.002454,0.48213,0.5076,-0.41058,-0.48706,-0.33405,0.048543,0.023078,-0.25752,-0.079021,-0.38502,0.17612,0.32914,-0.002558,-0.58909,-0.33396,0.66075,0.83922,0.17609,-0.20656,-0.028078,-0.56359,-0.053506,0.68605,-0.56358,-0.58902,0.074142,-0.002363,0.023078,0.43115,0.63512,0.099552,-0.46154,-0.3086,0.022998,-0.053519,-0.027974,-0.15548,-0.002448,-0.078977,0.22707,0.12504,-0.56358,0.20163,0.91578,0.20158,-0.41058,-0.53811,-0.23204,-0.027969,-0.078959,-0.10446,0.023041,0.15057,0.50761,-0.002479,-0.46155,-0.43608,-0.028023,-0.078953,0.35462,-0.053476,-0.25751,0.38006,0.48207,0.40561,-0.002399,-0.69103,-0.18101,0.023005,-0.20649,-0.283,0.43101,-0.0535,0.15056,-0.12993,-0.15544,0.55858,-0.10452,-0.20655,-0.10445,0.71167,0.048598,-0.30856,-0.38497,-0.30844,-0.25759,0.7625,0.22704,-0.25748,0.25267,-0.23204,-0.20648,-0.28305,0.15057,-0.15549,0.94131,-0.25754,-0.25761,-0.053458,0.099577,-0.18104,-0.51262,-0.28302,-0.078984,0.48211,0.20167,0.17612,0.35458,0.17601,0.074081,-0.10454,-0.002472,-0.053476,-0.6145,-0.33398,-0.002461,0.17609,0.074057,0.22705,-0.028029,-0.20654,-0.15552,-0.18106,0.30366,0.099583,-0.027956,0.17608,-0.2065,0.20155,-0.002436,-0.43601,0.40555,0.35453,-0.69115,-0.58907,0.96683,0.40568,-0.18096,0.25256,-0.25764,0.27809,-0.64012,-0.5381,-0.76771,-0.002405,0.43118,0.60973,0.12505,-0.0535,0.45654,0.30356,-0.53796,-0.23197,0.71157,0.20156,-0.30848,-0.079021,-0.2065,-0.35946,-0.12998,0.023041,0.099613,0.50758,0.40558,0.43101,0.81358,-0.436,-0.81859,-0.33396,-0.232,0.30363,0.99227,0.27811,-0.10445,-0.48706,-0.20658,-0.5381,-0.002485,-0.71663,0.50769,-0.079008,0.38016,0.099564,0.55864,0.023041,0.074075,0.20156,-0.027969,-0.10453,-0.23197,-0.10447,0.12504,-0.334,-0.10447,-0.1299,-0.078966,0.86457,0.55859,0.074038,-0.436,-1.15,0.048543,0.43107,-0.28306,0.15052,0.60959,-0.18098,-0.079014,0.074038,-0.43601,0.53322,0.53317,0.12512,-0.43604,-0.028005,0.048512,-0.28305,-0.56361,-0.53815,0.35464,1.0944,1.2984,-0.027962,-0.97174,-0.38505,-0.35965,0.43113,-0.12996,-0.18093,0.35453,0.38011,-0.053464,-0.84409,-0.1299,0.71168,0.73715,-0.53805,0.53302,0.25251,-0.64002,-0.18101,0.50753,0.27809,-0.10437,-0.30846,-0.002461,0.048549,-0.079039,0.099588,-0.20649,0.099528,0.099546,-0.18108,-0.35957,-0.12999,-0.3085,0.30365,0.25252,-0.002412,0.023029,0.023108,-0.10453,-0.10449,-0.51263,0.55869,-0.33402,0.73728,0.45665,0.25257,-0.30849,-0.56363,-0.81871,-0.10453,-0.002491,-0.028054,-0.027993,0.27811,0.074124,0.12509,0.6607,0.40557,-0.4615,-0.25751,-0.10446,-0.002374,-0.23194,0.099521,-0.35954,-0.079051,0.27804,0.15051,-0.053458,-0.38498,0.35459,0.20156,0.55864,0.12504,-0.58899,-0.35953,0.78812,0.73712,-0.38504,-1.2267,-0.10445,0.38018,0.78819,0.20158,-0.41055,0.023096,-0.027956,0.023065,-0.41064,-0.41063,-0.20655,0.30356,0.048616,0.02309,0.66061,-0.334,0.074038,0.50764,0.15058,-0.12996,-0.002412,0.32907,0.40557,-0.97156,-0.5126,-0.56357,0.78812,0.3291,-0.18093,0.099491,-0.1045,-0.20653,-0.20648,0.099503,-0.35949,0.58411,0.78813,-0.71654,-0.30842,-0.002307,1.2472,0.15042,-0.027944,-0.28301,-0.002503,-0.41061,-0.81858,-0.027962,0.074051,0.38006,0.96667,0.12507,-0.81861,0.12512,-0.002448,0.43117,-0.43603,-0.30856,-0.38504,0.35457,0.60962,0.32918,-0.53811,-0.61458,0.022998,-0.00251,0.099454,0.60983,0.30363,0.76269,-0.5891,-0.97171,-0.8186,-0.028005,0.45662,0.60965,0.20158,-0.334,-0.4871,0.32918,1.1198,-0.079014,-0.12998,0.27797,-0.38508,-0.20647,0.17605,-0.66555,-0.25746,0.17607,0.40563,0.048518,-0.18099,-0.35959,-0.15553,0.073989,0.86472,0.55881,0.32908,-0.35954,-0.58908,0.022998,-0.15552,-0.30855,-0.15551,-0.027969,0.17611,-0.10447,-0.99706,0.15061,1.1196,0.35453,-0.64005,-0.38501,1.0432,0.17614,-0.51248,-0.69108,-0.38506,0.20153,-0.002472,0.023023,0.35461,0.022974,0.099595,-0.181,-0.81852,-0.51256,1.5786,1.1196,-0.41048,-0.84397,0.27803,-0.385,-0.81853,-0.027962,0.30358,0.17597,-0.81865,-0.15545,1.6045,0.27806,-0.41058,-0.33409,-0.20653,0.20154,0.30354,0.25256,-0.9461,-0.027858,0.2016,-0.002454,0.35466,1.7317,0.20149,-1.0481,-0.99707,-0.15548,-0.15549,-0.33393,-0.48696,0.27803,0.83907,0.7626,-0.12999,-0.30849,-0.12995,0.27808,0.099619,0.048561,-0.41064,0.09951,0.022974,0.32918,0.30364,-0.33401,-0.41065,-0.28303,-0.35956,0.45661,-0.48698,0.20159,-0.66552,0.2526,0.96664,-0.10452,-0.02792,-0.05347,0.17607,-0.30854,-0.07891,0.1505,-0.46157,-0.28305,0.45658,-0.15544,-0.10445,0.45655,-0.002503,0.074013,0.074136,-0.10447,0.38015,-0.43606,-0.13002,0.02301,-0.28295,-0.28303,0.60954,-0.027907,0.09965,-0.10452,-0.28304,0.099595,-0.00243,-0.18094,-0.48714,0.81368,0.86464,0.074062,-0.92062,-0.4106,0.12492,0.12503,-0.4615,-0.10435,-0.41039,0.27808,-0.10456,0.53305,0.38008,-0.002436,-0.15542,-0.33399,-0.12996,0.55856,0.17599,-0.33405,0.099644,-0.12994,-0.002443,-0.2575,-0.38503,-0.38508,-0.002491,0.32908,1.0176,0.2015,-0.283,-0.41045,-0.53802,-0.35949,0.074062,0.2525,0.09954,0.074051,0.60977,0.074093,0.023029,-0.61458,-0.18111,-0.027998,0.22705,0.12503,-0.002479,0.25257,0.27803,-0.25749,-0.51247,-0.53794,1.2217,0.63512,-0.30843,-0.1044,0.023029,-0.38506,-0.3596,-0.078941,-0.92053,-0.10452,0.68606,0.45655,0.17604,-0.20653,0.25253,0.12499,0.66072,0.099583,-0.35946,0.20153,-0.43591,0.048543,-0.10452,-0.64004,-0.46154,-0.74199,0.38004,0.023035,0.27805,0.25252,0.048512,0.48213,0.43114,0.40564,0.09954,-0.13,-0.35955,-0.078928,-0.33401,-0.15548,-0.12997,-0.079002,-0.10457,-0.12998,0.12509,1.1454,0.22701,-0.53815,-0.89516,0.048555,0.40566,-0.38499,0.35454,0.40555,0.099583,-0.53804,0.38008,-0.33402,-0.002461,-0.027901,0.27815,0.58407,0.89002,-0.12998,-0.94601,-0.283,-0.48697,-0.33398,-0.66561,-0.002516,1.3237,0.60969,0.32902,-0.48708,0.32908,0.2271,-0.64011,-0.33401,-0.38503,-0.15548,-0.5381,1.1454,0.6607,0.71173,-0.18106,-0.66566,-0.48713,-1.1501,-0.10452,1.0687,0.53309,-0.43601,0.22712,0.63515,-0.46143,-0.20649,-0.79308,0.71155,0.83919,0.048604,-0.61455,-0.48704,0.12501,0.1251,-0.027962,-0.46149,0.76253,0.68606,-0.18099,-0.89501,-0.66551,0.50763,0.73706,-0.18098,0.27809,0.43117,-0.33396,-0.38503,-0.41057,-0.4361,-0.027969,0.50767,0.30361,0.30363,0.074038,-0.28303,-0.002516,1.3492,0.73716,-0.69105,-1.0481,-0.5636,-0.25751,-0.30851,-0.10452,1.1962,0.15064,0.073989,0.45666,-0.35948,0.32915,-0.027931,-0.74212,0.20151,0.53312,0.96669,-0.38506,-0.28299,-0.33395,-0.25749,-0.33404,-0.793,0.27806,0.55862,0.40553,0.048525,-0.38506,-0.23193,0.73706,0.20158,-0.23195,-0.12998,0.074038,0.38014,-0.002394,-0.13,0.099497,-0.53804,0.45648,-0.15553,-0.81857,0.099668,0.5587,0.074075,-0.3595,-0.053488,0.22703,0.1504,-0.053482,-0.4871,0.25258,-0.12993,0.20161,0.048561,0.48206,-0.15546,-0.56354,0.25251,0.27806,0.45661,-0.46151,-0.61446,0.1251,0.074062,0.20158,0.12505,-0.25756,0.074002,-0.51257,0.50762,0.02301,-0.15549,-0.07899,0.45661,-1.2521,0.15058,0.81381,0.25258,-0.33415,-0.053525,-0.078996,-0.25755,-0.28299,-0.002461,0.63521,0.40566,0.1251,-0.43607,-0.33405,0.73706,0.074093,0.074111,-0.66554,-0.43604,0.22704,0.17605,0.048525,0.55856,-0.28293,-0.43599,-0.30854,-0.25758,0.86456,0.48214,-0.027925,-0.86952,-0.053421,0.40561,0.25261,-0.10452,0.43104,0.074008,-0.053378,-0.41049,-0.20646,0.22705,0.89009,-0.078972,-0.38505,-0.28299,0.12499,-0.002405,0.20158,0.1506,-0.20655,0.17612,-0.10451,0.27807,-0.4871,0.20162,0.27809,0.12515,-0.053568,-0.028011,-0.84412,-0.43608,0.78821,0.78828,0.09957,-0.20653,-0.41058,-0.15553,-0.2575,-0.15548,-0.18095,0.12508,0.22702,0.2271,0.30355,0.30362,0.073965,-0.05347,-0.078923,0.17612,-0.61451,-0.76757,0.30351,1.1451,0.099479,-0.43607,-0.63996,0.22706,-0.02792,-0.181,0.17607,0.27811,0.12506,-0.079039,-0.00254,0.40566,-0.28303,0.074081,0.76278,-0.25748,-0.46156,-0.41062,-0.38511,-0.027956,-0.053482,0.55867,0.30365,0.76273,-0.12999,-0.48708,-0.43608,0.22709,0.91568,-0.00243,-0.28298,-0.58904,-0.10458,-0.58896,0.50756,-0.002448,-0.18098,0.35458,1.1196,0.20155,-0.28297,-0.56352,-0.20642,-0.18097,-0.43597,-0.18101,0.25252,0.023005,-0.027993,0.048536,-0.181,0.43123,0.50757,0.45664,-0.10452,-0.79316,-0.18101,0.27812,0.27812,0.53321,-0.18101,-0.20653,0.12514,-0.51263,-0.5126,0.71154,-0.385,-0.15545,0.32902,-0.18097,-0.12989,0.3801,0.30356,0.43115,0.20166,0.074124,-0.053544,-0.18105,-0.38499,-0.38503,0.073892,-0.25758,0.20156,0.50761,-0.74199,0.048598,0.099485,-0.38499,-0.283,0.53307,0.35462,-0.078977,0.25262,0.074013,-0.053464,0.048525,0.048622,-0.5891,0.89014,-0.079026,-0.232,-0.18093,-0.5891,0.30363,0.40568,0.22708,-0.53809,-0.89529,0.35461,0.58421,0.71173,-0.028018,-0.38502,-0.76757,-0.18108,0.023005,0.83925,0.45661,-0.078966,-0.92064,-0.53798,0.73708,0.35452,-0.12995,0.099637,-0.10439,-0.053439,0.38003,-0.078984,-0.23207,0.12505,-0.18094,-0.51259,-0.15551,0.38006,0.55866,0.63517,0.30354,-0.053482,-1.4817,-0.027938,-0.079051,-0.12999,-0.48699,0.7372,0.66063,0.3036,-0.30844,-0.69104,0.25252,-0.25756,-0.10457,0.2525,-0.053451,-0.35956,-0.28295,0.04858,0.27816,-0.027889,0.048518,0.099588,-0.38509,-0.053488,1.4511,0.53307,-0.48701,-0.97149,-0.58906,-0.43603,-0.38499,0.35464,0.27808,0.35454,-0.002497,0.15051,0.20156,0.53317,-0.13002,-0.15547,-0.027998,-0.58918,0.53322,0.68629,0.20167,-0.66562,-1.0482,0.30352,0.20155,-0.56351,0.023047,0.099521,-0.35945,0.66062,-0.10449,0.35459,0.30356,-0.46151,-0.25748,0.40553,-0.002516,0.60959,0.20154,-1.15,-0.33404,0.30354,0.023108,-0.18093,-0.18096,-0.027993,0.53317,-0.078966,0.40554,-0.58917,0.48213,0.17609,-0.02795,-0.41054,0.20144,-0.41054,-0.23192,0.4311,0.38008,-0.56355,0.35459,-0.48699,-0.25748,0.099583,0.12505,-0.30851,-0.13,0.22705,-0.15553,0.38015,0.17604,0.99212,0.32903,-0.28302,-0.58903,-0.41044,-0.51255,-0.181,-0.23202,0.1506,0.25259,0.55862,0.12501,-0.23209,-0.027938,-0.002405,0.17609,0.15064,-0.7166,-0.46155,0.35457,0.83917,0.048476,-0.25757,0.074062,-1.0735,-0.46153,0.81362,0.60954,-0.181,-0.053415,0.12508,-0.2065,-0.002485,-0.25755,-0.66562,-0.15547,-0.002454,0.27814,0.27818,0.32907,0.81366,0.023059,-0.58905,-0.18101,0.55856,-0.33407,-0.53804,-0.61454,0.53312,0.71155,-1.2776,0.048561,-0.35962,0.30353,0.91582,1.0689,-0.002497,-1.0992,-0.5891,-0.25747,0.43108,0.27799,0.12507,-0.10452,0.15056,-0.46161,-0.58908,-0.30844,0.40563,-0.25761,0.63518,0.15059,-0.69107,-0.4361,1.3238,0.6608,-0.48705,-0.61462,-0.10453,-0.5125,-0.89513,0.53313,1.0176,0.35468,-0.10456,-0.10453,-0.33405,-0.6145,-0.18095,0.50765,0.25254,-0.64006,-0.18098,0.40555,0.45662,0.048567,0.32914,-0.053446,-0.28306,-0.38509,0.09954,0.20156,0.04858,-0.10448,-0.181,-0.30858,0.48209,0.023035,-0.15543,0.48213,-0.28304,-0.35953,0.048622,0.15058,0.78818,-0.28307,-0.84425,0.22713,-0.1045,-0.18096,-0.41048,0.32914,0.099564,0.32903,-0.13001,0.12502,0.099595,-0.48697,0.71159,0.27803,0.12517,0.30358,0.15049,-0.35946,-1.3542,0.02301,-0.43606,-0.002405,0.45653,0.12508,-0.027969,0.40557,0.048531,-0.43607,-0.86963,0.7628,0.73717,-0.079021,-0.51257,0.048543,-0.30855,-0.05347,0.074062,0.63514,0.02301,-0.18097,0.048585,-0.56358,-0.53807,0.38014,0.2016,0.27809,0.022986,-0.3851,0.43099,-0.027858,0.58424,0.1251,-0.74205,-1.1502,-0.28302,0.76263,0.15049,-0.538,0.17606,0.099515,0.1251,-0.078984,0.35456,0.15056,-0.15547,0.66056,-0.64004,-0.38502,0.71175,-0.12998,-0.027969,0.074051,0.15056,0.022974,-0.51259,-1.3541,-0.05347,0.81365,0.17603,1.1198,0.35464,-0.28298,-0.46156,0.45648,-0.20652,-0.92058,-0.078935,0.15051,-0.10449,-0.43607,0.15062,0.35457,0.38003,0.53316,0.17604,0.22711,-0.51252,-0.74212,0.38019,0.45664,0.45661,-0.20657,-0.7931,-0.30854,0.074026,0.43126,-0.30854,0.074062,0.30345,-0.30849,-0.15549,-0.079014,-0.23202,-0.15543,0.074087,0.48213,-0.13001,-0.35953,-0.12997,0.32912,0.63526,0.074087,-0.30858,-0.2576,-0.28311,0.27817,0.35459,0.48209,-0.53812,-0.053544,-1.0227,0.27812,1.2218,1.477,-0.41057,-0.7421,-1.2777,-0.97164,-0.13004,-0.13002,0.68608,0.50759,1.1708,-0.078972,0.074081,0.023054,-0.053464,0.22709,-0.15549,-0.20647,-0.23194,-0.10447,-0.2065,-0.30859,-0.38506,-0.027974,0.25251,-0.10445,0.43108,0.66065,-0.12995,-0.5125,0.60965,0.048549,0.48212,-0.43604,-0.41044,-0.84416,0.71161,0.15051,-0.002387,-0.002436,-0.15557,0.20153,0.55856,-0.25751,-0.9972,0.25266,0.43123,0.96682,-0.3851,-0.86961,-0.46157,0.30361,0.38005,0.12509,-0.33399,0.50761,0.58409,-0.20648,-0.28304,0.07402,0.38009,-0.2829,-0.13004,-0.41047,-0.74204,1.0431,0.30353,-0.69097,0.25252,0.35458,0.074044,-0.487,-0.20647,0.43107,0.15051,-0.027969,-0.12998,0.15055,0.048536,0.17611,-0.33401,0.15059,0.30358,0.25258,-0.10449,-0.48708,-0.20653,-0.33404,-0.41049,-0.00265,1.1197,0.78832,-0.33393,-0.58908,-0.20658,0.48206,-0.28294,-0.43596,-0.385,0.2015,0.40557,-0.053488,0.89015,-0.28302,-0.18094,-0.15546,-0.13,-0.41052,-0.053464,0.023065,0.3801,0.86462,0.76268,-0.23196,-0.15549,-0.5891,-0.35953,-0.283,-0.028042,0.099491,0.17606,0.099577,-0.61452,0.30363,0.86477,0.048482,-0.18103,-0.79312,-0.25751,0.50762,-0.43601,0.25254,0.12509,1.1962,0.60957,-0.97158,-0.61454,-0.86952,-0.79303,0.94109,0.7626,0.20161,-0.12999,0.25257,-0.078941,-0.66547,-0.002436,1.0941,0.099528,-0.027938,-0.002479,-0.7166,0.3802,-0.10446,-0.43608,0.48207,1.9104,-0.15551,-0.43606,-0.74216,-0.51257,-0.92065,-0.33404,0.55866,0.53316,0.22708,-0.1555,0.12508,0.66068,0.1506,0.20159,-0.15551,-0.20644,-0.002479,-0.078935,-0.10454,-0.28305,0.099497,0.53311,-0.38497,-0.10449,0.17597,-0.33396,0.48213,-0.002454,-0.25745,-0.12994,0.27811,0.43112,-0.1044,-0.89517,0.17602,0.76256,-0.15547,-0.41059,0.38011,-0.18104,-0.35951,-0.25744,0.81369,0.50766,-0.053482,-0.053495,-0.56356,-0.58909,-0.46159,0.40561,0.45659,0.023072,0.023072,0.048549,0.278,0.35456,-0.30844,-0.35952,0.12503,0.71165,-0.15551,-0.58903,-0.13,0.30353,-0.002467,-0.15543,-0.078928,-0.30851,0.38001,0.43108,0.53325,0.40561,-0.25745,-1.1246,0.073959,0.20146,-0.30851,0.30363,0.35453,0.048555,0.023047,-0.12999,0.22709,0.43108,-0.20647,-0.4615,0.023072
-0.15549,-0.002479,-0.002461,-0.078977,0.099552,0.15057,-0.027956,-0.027969,0.12506,-0.002472,-0.12999,0.048536,-0.027969,-0.12999,-0.053482,0.12506,-0.027962,-0.12999,0.099552,0.048561,-0.07899,0.048531,0.12506,-0.10449,0.074038,0.023047,0.048555,-0.13,0.023029,-0.027974,-0.002467,0.099552,0.15057,-0.027956,-0.078977,0.074044,-0.05347,-0.15549,-0.053482,0.20158,0.35462,-0.07899,-0.1555,-0.002467,0.15057,0.12508,-0.12999,-0.15551,-0.002479,0.12505,-0.02798,0.074057,0.17607,0.09957,-0.15551,0.048531,0.074057,-0.002443,-0.027969,0.048531,0.023029,-0.12999,-0.10449,0.048536,0.023047,-0.15549,-0.002467,0.048531,0.099559,-0.07899,0.17607,-0.053464,-0.053482,0.15056,-0.13,0.048543,0.099552,0.023035,-0.002472,0.09957,-0.002467,-0.10449,0.074038,-0.002467,-0.078984,0.099552,0.074051,-0.002472,0.023029,-0.10447,-0.1555,0.099546,-0.10449,-0.053488,0.099546,0.074069,0.20159,0.22709,-0.28302,-0.1045,-0.027987,-0.20651,-0.027987,0.099546,-0.027969,0.074062,0.074051,-0.078972,0.09957,-0.002461,-0.053458,-0.027993,-0.10449,0.09957,-0.002467,0.099552,-0.02798,-0.28302,0.074051,-0.05347,0.17605,-0.053476,-0.078972,0.048543,0.023029,0.099546,-0.10449,0.22709,-0.078966,0.048536,-0.1045,-0.027969,0.27808,0.023059,0.074051,-0.30849,-0.02798,0.09954,-0.15551,0.074044,0.048531,0.023041,0.099559,-0.10449,-0.10447,0.074057,-0.15549,0.048536,-0.002461,-0.05347,0.074051,0.074038,-0.027956,-0.053476,0.15057,-0.25753,0.074062,0.074062,-0.1555,-0.02798,0.048525,-0.23202,0.09957,-0.002461,-0.078977,-0.078984,0.048536,-0.027974,-0.15549,0.074057,0.2781,-0.05347,-0.07899,0.12505,-0.12999,-0.15549,0.023041,0.20157,0.023047,-0.12998,0.099559,-0.002461,-0.1555,0.048549,-0.027974,-0.13,0.074044,-0.002467,-0.15549,0.17606,-0.002467,-0.10447,0.15057,-0.027962,-0.002448,0.15057,-0.027969,-0.078972,0.099546,-0.027974,-0.10449,0.048536,0.048549,-0.25752,0.074057,0.15058,0.15059,0.12507,-0.15551,-0.078996,0.099546,-0.078984,0.023035,0.074051,0.074051,-0.078984,0.15057,-0.053464,-0.053482,0.099559,-0.078977,-0.002472,0.023041,-0.05347,0.048549,0.15056,-0.027969,0.023047,0.023059,-0.05347,0.099546,-0.027969,-0.002472,0.048549,-0.13001,-0.10449,-0.002472,-0.078972,0.25259,-0.027956,0.048536,0.12507,-0.10449,0.074051,-0.1555,-0.027974,-0.027969,-0.2065,0.048549,-0.1045,-0.10449,0.15056,-0.078966,0.099583,0.12507,0.048531,0.023035,-0.05347,-0.07899,0.074051,-0.078996,0.099559,-0.15549,0.048543,-0.15549,0.023047,0.048555,0.12509,0.12507,-0.181,0.023035,-0.027974,0.023041,-0.053482,-0.15551,0.20156,-0.078966,0.048555,-0.027974,0.048536,0.074033,-0.181,0.099564,0.074062,-0.002448,0.12507,-0.15549,-0.002479,-0.002467,-0.053488,0.17607,-0.10449,0.12505,-0.002467,-0.027969,0.048549,-0.30851,0.023029,0.023035,0.074069,0.22708,-0.13,-0.13001,0.12507,0.023059,0.12507,-0.002461,-0.18101,-0.12999,0.048531,-0.07899,0.12507,0.20158,0.15057,-0.15549,0.099564,0.048549,-0.078966,0.074038,-0.15552,-0.053476,-0.05347,0.25257,0.12509,-0.10449,0.12508,-0.027969,-0.20652,-0.002461,-0.02798,0.22707,-0.25755,0.15062,0.30361,0.43117,-0.25751,-0.33405,-0.33406,-0.10452,-0.33405,0.25257,0.58422,0.27811,-0.28303,-0.38505,-0.43607,0.048536,0.1761,0.55866,0.074013,0.38012,0.50766,0.023059,-0.35955,-0.69111,-0.7931,-0.33398,0.38006,0.32905,0.38006,0.76261,0.099619,-0.487,-0.61457,-0.23198,0.27808,-0.053525,0.074026,0.074062,0.55879,0.27817,-0.71646,-0.46161,1.6295,0.40552,-0.30853,-0.94608,-0.20644,-0.25751,0.2016,-0.51254,-0.48708,-0.43603,0.78827,0.63512,0.53325,0.074026,0.38013,-0.33409,-0.28307,-0.15549,-0.053433,-0.61455,-0.66558,0.5585,-0.13002,0.58408,0.22713,0.55864,-0.002467,-0.002461,-0.53803,-1.4051,-0.053427,0.66064,-0.71656,-0.43599,1.0431,0.99207,0.15064,-1.1246,-0.028005,1.3746,-0.18099,-0.002546,-0.35956,-0.46144,0.22715,-0.43598,-0.41061,0.023035,0.35465,0.048543,-0.002485,0.15058,-0.28306,0.20158,0.78822,0.20159,0.25262,-0.07899,-0.58914,-0.078977,-0.86967,0.048561,0.45667,0.48216,-0.027956,-0.15551,0.43112,-0.25751,-0.25751,-0.23204,-0.20651,0.15052,0.89014,-0.20643,-0.15549,0.32907,-0.181,-0.12996,-0.23197,-0.58899,0.58408,1.5786,0.048525,-0.41051,-0.46154,-0.69102,-0.38497,0.17606,-0.078959,-0.0535,-0.002485,0.53312,-0.1045,-0.18092,0.27809,-0.20652,0.30358,0.25257,-0.28304,0.099588,0.12507,0.73728,-0.28303,-0.56359,-0.25754,-0.232,-0.25753,-0.33405,-0.002467,-0.23198,0.4311,0.43109,1.0942,0.048585,-0.53793,1.0177,-0.027993,-0.69104,-0.64002,-0.23203,-0.385,0.30355,-0.20652,0.68615,-0.48702,0.30356,0.73524,0.0485,-0.41051,-0.38502,-0.28301,-0.002454,0.20161,0.32913,0.32913,-0.20649,-0.53813,0.048543,0.25253,0.023072,0.45666,0.25251,-0.41057,-0.48705,-0.18094,0.27814,0.17609,0.17605,-0.30851,-0.25759,0.25245,-0.35948,-0.35951,-0.12996,-0.078928,0.074093,0.25262,0.73712,0.38008,-0.10441,0.074087,0.023017,-0.61457,0.48208,0.25252,-0.48699,0.50758,0.22699,-0.25746,-0.58899,-0.53799,-0.12999,-0.28302,-0.51249,0.50757,0.43099,0.30352,0.38019,0.22712,0.38014,-0.15549,-0.5381,-0.33405,-0.15554,-0.28302,0.20159,0.66074,0.50767,0.023041,-0.078996,-0.23203,-0.30853,-0.4616,0.099559,-0.002436,0.048549,0.12507,-0.18095,0.5332,0.22704,-0.12995,-0.28302,0.27805,0.78808,-0.30854,-0.74204,-0.51249,-0.002491,0.48208,-0.027987,-0.43597,0.12507,-0.20649,-0.25748,0.074026,0.45659,0.099546,-0.002491,-0.28298,-0.30852,0.20158,-0.028011,0.22711,-0.002418,0.27809,-0.053451,-0.35951,0.022894,-0.078984,0.15066,-0.23199,-0.002443,-0.48708,-0.51258,-0.00243,0.40565,0.15054,0.099515,-0.25753,0.048567,0.15056,0.45664,-0.86953,0.25259,0.60947,1.0686,-0.89505,-0.43591,-0.48705,-0.23198,0.17606,0.30352,-0.10447,-0.027931,-0.28302,0.48206,-0.05347,0.074051,-0.12999,-0.028005,0.048494,0.25264,-0.078886,0.22707,-0.10465,0.40562,0.22723,0.32923,-0.48712,-0.86974,-0.30854,0.099613,-0.43606,-0.027998,0.43118,0.1506,0.50752,-0.15555,0.074044,-0.02792,-0.181,-0.002454,-0.18098,-0.002443,0.023041,0.68614,0.58402,-0.64001,-1.1755,-0.12994,0.073984,0.048463,0.12501,-0.053476,-0.15547,0.22703,0.30356,0.023072,0.25257,-0.6655,0.074111,0.6861,0.074038,0.63499,-0.25744,-0.28293,-0.05336,-0.15548,-0.6146,-0.2321,-0.25761,0.81375,0.048561,0.25259,-0.38506,0.099528,0.20159,-0.28305,-0.13,-0.283,-0.002443,-0.20646,-0.15549,0.27808,0.15061,0.20163,0.43115,0.048512,0.074026,0.09951,-0.51262,-0.35953,0.17609,-0.23193,-0.51254,0.48204,-0.078972,0.38007,0.15057,0.048531,-0.33396,-0.23198,-0.35948,0.40559,0.20157,0.38006,0.20156,-0.15549,0.099485,-0.053446,-0.12995,0.50755,0.27808,-0.30854,-0.76759,-0.15544,-0.33401,0.22712,0.074038,0.22707,-0.25756,0.40563,0.17608,-0.25753,-0.15554,0.40563,-0.15548,-0.12999,-0.13001,0.20157,0.15059,-0.12999,0.07402,0.89017,0.023139,0.048525,-0.10451,-0.30848,-0.64001,0.12499,0.22703,-0.48703,0.048506,0.63507,0.023072,0.023035,-0.30851,0.3291,0.099552,-0.33399,-0.15547,0.40562,-0.078953,-0.64014,0.074002,0.38013,0.38011,0.1506,-0.15553,-0.56355,-0.38505,-0.12994,0.40562,0.25259,0.81375,0.25258,0.048555,-0.30856,-0.48714,-0.38506,-0.078947,-0.13002,-0.002472,-0.10449,0.66075,0.78825,-0.20655,-0.41058,-0.283,-0.002436,0.048549,0.099497,-0.28298,0.17606,0.074057,0.099534,-0.28298,0.22711,0.27806,0.68611,0.30353,0.25257,-0.53802,-0.23201,-0.66556,-0.69102,0.4056,0.22705,-0.15543,0.35459,-0.079033,-0.25752,0.12511,0.02301,0.023035,0.023059,0.20158,-0.002454,-0.30852,-0.10449,0.074069,0.20158,0.35458,0.48214,0.43118,-0.1045,-1.2266,-0.43608,0.22704,-0.002497,0.15057,0.074033,-0.30849,-0.38499,-0.027987,0.53311,0.91565,0.17609,0.48204,-0.43596,-0.10443,-0.079002,-0.51255,-0.51254,-0.053495,-0.20655,0.15059,0.45662,0.15054,-0.30852,0.30361,-0.20653,0.12513,-0.053451,0.38008,-0.10453,-0.69106,0.32905,0.6861,0.53314,-0.078966,-0.053549,-1.2776,-0.38499,0.15052,0.86466,0.20156,0.023108,-0.38499,-0.283,-0.053506,-0.33406,0.38014,0.25259,0.023084,-0.35964,0.35456,-0.027987,-0.053495,0.40566,0.0741,-0.10447,-0.1555,-0.33404,-0.35959,0.3291,0.22709,0.32909,-0.385,-0.30855,0.22707,-0.25748,0.35457,0.32906,0.17606,-0.25753,-0.79304,-0.6911,0.73716,-0.38499,0.15052,0.48211,0.30358,-0.5635,-0.58901,0.30355,1.0431,0.71165,-0.23203,-0.43603,-0.078947,-0.2065,-0.12989,-0.61463,0.20155,0.25259,-0.28306,-0.12999,0.71177,0.099559,-0.23205,-0.25757,-0.28312,0.20159,-0.28294,-0.15548,-0.078966,0.17606,-0.35961,0.25257,0.66071,0.38014,0.55873,-0.35949,-0.079026,-0.64004,-0.58905,0.27797,0.30353,0.20153,-0.28297,-0.81851,0.15052,0.66062,0.023072,0.023047,-0.15549,-0.028005,0.22704,0.023041,-0.12998,-0.30846,-0.3595,0.023029,0.4311,0.099577,-0.053458,-0.13001,-0.48713,0.074087,0.023005,0.68617,0.53316,-0.027993,-0.43613,-0.4361,0.15063,-0.51253,0.15058,0.0741,0.099577,0.78812,-0.53807,-0.33404,-0.13004,0.023047,0.09957,-0.078892,0.50769,0.176,-0.079039,-0.3341,0.68608,0.38016,-0.41043,-0.23203,-0.002467,-0.027998,-0.15548,-0.078923,0.073977,0.22708,0.35455,1.1197,-0.46146,-0.41047,-0.61455,0.17597,-0.25749,0.15059,0.53319,0.099503,-0.079002,-0.20654,-0.38503,0.35462,0.66075,0.12503,-0.33406,-0.23205,0.074093,-0.5636,-0.15553,-0.027925,0.22707,0.20153,-0.20649,-0.56365,-0.053415,0.66074,0.48225,0.048543,-0.079008,0.074033,-0.23209,-0.027998,-0.28297,-0.079021,-0.028018,0.074044,-0.38502,-0.10444,1.4001,0.50765,-0.84404,-1.0991,-0.41049,0.099503,0.048482,0.32914,0.35469,0.099559,-0.15551,0.40557,-0.33406,-0.35958,-0.25753,0.20155,0.099534,-0.46154,-0.51259,0.4056,0.71181,0.71176,0.6097,-1.0227,-0.23202,-0.4106,-0.20655,0.30363,-0.28308,-0.25754,0.20161,0.86481,0.60973,-0.46157,-0.61462,-0.28305,-0.23207,-0.30857,0.83922,0.12504,0.023108,-0.84403,0.12501,0.12497,-0.30852,0.63517,0.58415,0.63514,-0.25753,-0.053568,-1.2266,-0.385,0.58407,-0.23196,-0.30851,0.17608,0.30358,0.38005,0.27808,0.048598,-0.13003,-0.48711,-0.027962,1.2217,0.20163,-0.61455,-0.23199,-0.12996,-0.41055,-0.46161,-0.61465,-0.58905,0.78824,1.1963,0.76274,-0.43616,-0.23204,-0.46152,-0.20652,-0.53814,0.09957,0.3801,0.63518,0.55867,-0.13001,-0.51262,-0.56354,-0.002443,0.15059,-0.20651,-0.053446,0.099497,0.2271,0.048543,-0.28296,0.15051,0.12508,0.30353,-0.00243,-0.51249,-0.28303,0.40549,-0.51252,-0.25745,0.023072,0.048561,-0.027993,0.20156,0.074038,-0.15551,-0.10455,0.074069,0.25257,0.68623,0.53322,-0.33404,-0.66567,-0.15549,0.074038,-0.35953,-0.35946,0.074044,0.073989,-0.15548,-0.053464,0.15056,0.48211,0.45669,0.17607,-0.61458,0.30353,-0.10452,-0.30852,0.45658,0.07402,-0.027907,-0.20643,-0.25746,-0.079008,0.023059,0.023017,-0.20655,0.12505,-0.00251,0.048561,0.023035,-0.13001,-0.053446,0.22705,0.15058,0.17609,-0.027944,-0.48709,-0.38511,0.27815,0.2272,0.55869,-0.25754,-0.58926,0.66061,-0.58897,-0.027901,-0.18101,0.09951,-0.48708,-0.002479,-0.028005,-0.28307,-0.002461,1.0943,0.4312,-0.078935,0.12503,0.17598,0.074075,-0.027987,-0.43607,-0.028018,-0.9971,0.17598,0.60957,0.15059,-0.053464,0.074087,0.04861,0.20158,-0.3085,-0.1555,0.17607,0.074026,0.12505,0.023047,0.20156,-0.41056,-0.15554,0.048567,0.3546,-0.20655,-0.002516,0.73729,0.20164,-0.48705,-0.6911,0.22711,0.43104,-0.30852,-0.66563,-0.43609,-0.35958,0.20159,-0.027925,0.96684,0.48217,0.074062,-0.3086,0.2015,-0.079026,0.04861,0.02309,-0.33398,-0.51252,-0.079014,0.45656,-0.12994,-0.23203,0.8136,0.63511,0.45659,0.099552,-0.538,-0.74202,-0.33396,-0.41051,-0.18098,-0.05347,0.27809,0.17607,0.45654,0.048494,-0.0535,0.78823,0.45669,-0.5126,-0.15551,-0.89523,0.2016,0.023065,0.15059,-0.25753,-0.18101,-0.053458,-0.18097,0.048525,0.38011,0.25259,-0.027993,-0.053458,0.66065,0.63517,-0.48699,-0.84409,-0.28301,-0.56356,0.50759,0.94106,-0.74202,-0.027969,0.25255,0.5586,-0.30846,-0.71654,-0.10447,0.6606,0.45657,-0.181,-0.43598,-0.078966,-0.053482,-0.002479,0.30358,-0.078977,-0.1045,-0.027938,-0.1299,0.43104,-0.38512,0.12504,0.6607,1.0434,0.27813,-0.18101,-1.5329,-0.76763,0.38002,0.6352,0.0741,-0.41057,-0.76767,-0.12997,0.22716,0.76268,0.17606,0.20168,-0.35954,0.5076,-0.07899,-0.20642,0.25253,0.43099,0.176,-0.23196,-0.25751,0.53306,-0.027993,-0.002412,-1.3031,-0.61454,0.71161,0.30356,-0.15545,0.32908,0.17607,-0.20646,-0.078984,-0.2065,-0.20656,-0.10448,0.048549,-0.028042,1.1199,0.023041,-0.41058,-0.30854,0.15055,0.22709,0.048555,-0.33404,-0.283,0.27808,0.4567,-0.20643,-0.41058,0.023023,-0.20653,-0.027987,0.35462,0.53317,0.38014,-0.58913,-0.43609,-0.6146,0.48211,-0.027925,-0.28296,-0.10445,0.48203,0.50771,0.38014,-0.12996,-0.10454,-0.078977,-0.51257,-0.12999,0.78816,0.6607,-0.25746,-0.13001,-0.53815,-0.69104,-0.25754,-0.13002,-0.43601,0.023041,0.40563,0.43112,-0.053451,0.073995,0.50759,0.48219,-0.28302,0.023121,-0.33406,-0.23202,0.38014,-0.66567,0.58422,0.074038,-0.002479,-0.66565,-0.61467,-0.028018,0.1761,0.40568,-0.053421,0.099534,-0.027993,0.1761,0.12505,-0.30858,0.074051,0.76273,1.3238,-1.0991,-0.41054,-0.23204,0.48205,-0.46153,-0.15554,-0.61451,0.25252,0.58408,0.45661,0.023041,-0.53797,-0.18096,-0.23201,0.048536,-0.487,0.43105,0.20154,0.58414,0.048555,0.17602,-0.028005,-0.18106,-0.20649,0.30361,0.023084,0.40561,-0.10448,-0.2064,-0.79316,-0.38509,0.074026,-0.10454,0.17602,0.66072,0.50775,-0.51255,-0.71665,0.30356,0.38012,0.20159,0.43106,-0.078959,-0.4615,-0.33404,-0.053519,-0.2575,0.023023,0.43103,0.09951,0.55865,-0.46134,-0.46148,1.0176,-0.13005,-0.58903,-0.46157,-0.15553,0.12501,0.074057,0.53317,0.17608,0.074002,-0.76764,0.023047,0.55866,0.43119,-0.25753,-0.38506,-0.23202,0.5587,-0.079002,-0.028005,-0.38507,-0.002485,-0.56362,-0.18099,0.12508,0.17607,0.58422,0.38018,-0.002485,-0.002558,-0.41055,-0.79307,0.5585,0.22701,-0.15542,-0.078825,0.43114,0.15049,-0.46154,0.20151,0.22707,0.48206,-0.12996,-0.43596,-0.15549,0.38011,-0.51251,0.12502,0.48209,-0.181,-0.81854,-0.027993,0.94112,0.27805,-0.053446,-0.41051,-0.00251,-0.12997,-0.078972,-0.053427,-0.4106,-0.028011,1.1198,0.25261,0.35464,0.27809,-0.23198,-1.0992,0.099564,0.43116,0.40561,-0.56364,-0.5381,0.074062,0.2526,-0.10452,-0.10449,-0.027925,0.15055,0.55865,0.074069,0.25265,-0.30852,0.35464,0.09954,-0.33407,-0.742,0.48196,-0.053519,0.17603,-0.33396,-0.35948,-0.053458,0.43107,0.73708,0.099595,0.074081,-0.53803,-0.41051,-0.30847,0.074069,0.12507,0.15052,0.32904,-0.002472,0.09954,0.12504,0.38011,-0.69116,-0.28282,0.30359,0.30353,-0.2831,0.68624,0.55871,-0.30853,-0.74216,0.022968,0.53318,-0.027974,-0.56357,-0.30854,-0.64009,0.7116,-0.46157,-0.002454,0.074087,0.63518,0.27813,0.25259,-0.053464,-0.46151,0.58408,0.12502,-0.79311,0.12509,0.45664,0.43104,-0.38499,-0.66551,-0.28302,-0.10451,-0.002497,-0.002485,0.48211,0.15056,-0.48697,0.04842,1.8337,-0.12989,0.099699,-0.46148,-0.61451,-0.66558,-0.18098,-0.079026,-0.23208,0.048494,0.25257,-0.51265,0.53315,0.15059,0.71174,0.48212,-0.10449,-0.1045,-0.43606,-0.28306,-0.10452,-0.86953,0.12503,0.58421,0.3547,-0.053427,-0.1556,-0.028005,-0.18101,-0.33404,-0.10448,-0.64002,0.76256,0.53306,-0.23194,-0.10444,-0.053439,-0.078959,0.15055,-0.15548,-0.283,0.023047,0.30356,0.048525,0.023047,-0.079002,-0.10447,0.12504,0.27807,-0.53808,-0.61449,0.27803,-0.10457,-0.15557,0.7373,0.71179,-0.30851,-0.30856,-0.13,0.43118,-0.28303,-0.46157,-0.48712,-0.18103,0.17603,0.50762,0.2016,-0.1045,0.074062,0.4056,-0.078904,0.099552,0.12508,0.40561,-0.027956,-0.002467,-0.46156,-0.46155,-0.1045,0.12506,0.02298,-0.053451,0.023029,0.048506,-0.078953,0.35459,0.17612,-0.64005,-0.053482,0.32913,-0.078892,0.68611,0.073977,-0.69115,-0.20657,0.22715,-0.053372,0.2271,0.81375,-0.35962,-0.18104,0.27809,0.22707,-0.10453,-0.15551,-0.69116,-0.002454,0.35472,0.048506,-0.2575,-0.027974,-0.07899,0.17609,0.023005,0.22716,0.12507,0.55862,-0.48706,-0.15545,-0.10448,0.12501,-0.078984,-0.15551,-0.25751,0.43108,0.25255,-0.027944,-0.56347,-0.74205,0.27801,0.66062,1.1962,0.71163,-0.71652,-0.71656,-0.46159,-0.2575,-0.07899,-0.10447,-0.10445,0.074087,0.20153,0.30352,-0.078996,0.30358,1.0434,0.17611,-0.41058,-0.33403,-0.4361,-0.30855,-0.38506,0.15059,0.83926,0.048512,-0.46159,-0.28295,0.38014,0.022992,0.25253,-0.25751,0.023035,-0.15552,0.099479,-0.41054,-0.12998,0.048525,-0.027907,-0.078953,0.83921,0.45666,-0.56345,0.022998,1.0431,-0.028018,-0.51252,-1.1756,-0.053458,-0.10449,-0.18103,0.3291,-0.23194,0.22708,0.63509,0.83911,0.099534,-0.58903,-0.18099,-0.538,-0.002394,-0.35957,0.023108,0.25261,0.50761,0.25257,-0.58917,-0.053519,0.22707,0.9923,-0.51257,0.074044,-0.28302,-0.027944,0.023047,-0.053464,-0.48707,-0.35948,-0.35949,0.89011,0.12507,-0.10444,0.35461,0.20153,0.074062,-0.027998,-0.25751,-0.15544,-0.002418,0.94118,-0.053458,-0.078972,-0.33406,-0.33403,-0.35957,0.099583,0.023023,-0.18104,-0.078928,0.45658,0.074051,-0.18092,0.35451,0.22706,-0.2575,0.023047,0.55857,-0.12998,-0.23201,-0.35948,-0.35942,0.6861,-0.053525,0.32915,-0.48703,0.048543,-1.0737,0.17608,0.048531,0.40563,0.12509,0.20159,-0.25759,-0.28305,-0.053446,0.15061,0.15059,0.50759,0.023054,-0.43602,-0.74208,0.022986,0.227,0.48213,0.15062,-0.078972,-0.028011,-0.18094,-0.10438,0.20158,0.12496,-0.25749,-0.43599,0.37998,0.53305,-0.487,-0.46149,-0.027956,-0.23197,-0.079008,0.30356,-0.079057,-0.10449,-0.002394,0.63521,0.17611,0.27806,-0.10451,-0.20652,-0.12996,-0.28293,0.22705,-0.43616,-0.41061,0.12507,-0.0535,0.15059,-0.18099,0.91584,0.38017,0.15059,-0.18108,-0.25754,-0.69118,0.15051,-0.56345,0.55862,0.023054,0.12505,0.22705,-0.1555,0.12507,-0.002423,-0.18098,-0.002485,-0.48713,0.20163,0.8137,0.53321,-0.027956,-0.64014,-0.94618,0.48205,-0.20649,-0.079014,0.27808,0.023047,-0.18091,-0.002443,0.048567,0.074033,-0.079021,-0.10451,-0.48703,0.73723,0.35456,0.17607,-0.027998,-0.18097,-0.58915,0.48205,-0.053464,0.76279,0.25262,-0.20652,-1.1248,-0.58913,-0.027969,0.32909,0.32918,-0.12994,0.71176,0.023029,0.12494,0.22704,-0.74213,-0.23188,-0.10444,0.25256,0.40558,-0.12997,0.22704,0.15052,0.53311,-0.23195,-0.23193,-0.43601,-0.4105,0.22701,-0.027969,-0.10451,0.73712,0.7881,-0.99708,-0.23197,-0.10446,0.2781,-0.41059,0.1506,0.40563,0.17609,-0.028005,-0.28308,-0.002472,-0.10446,0.023023,-0.41056,-0.13004,0.63517,0.73728,-0.078928,-0.33404,0.58411,-0.23207,-0.76767,-0.92064,0.89022,-0.027956,-0.078996,0.15054,-0.25744,0.27809,0.17608,-0.079021,0.048536,0.023059,0.53314,0.40563,-0.181,-0.46163,0.074038,0.09957,-0.002423,0.32904,-0.43596,-0.283,0.074013,-0.053421,-0.002412,0.25256,0.4311,0.12498,-0.053531,-0.3595,0.22712,0.099528,0.12506,0.099552,-0.61454,-0.15547,0.50755,0.4567,0.17606,-0.28308,-0.61465,-0.23197,0.3802,0.2271,-0.053446,-0.13002,0.17606,-0.23204,-0.25759,0.048494,0.76275,0.38015,-0.46149,-0.5381,-0.13005,-0.20652,0.37999,-0.078923,0.30366,0.20164,-0.1555,0.22708,-0.028018,-0.1555,-0.66555,0.15051,0.15052,-0.10445,-0.30847,-0.28312,0.63517,0.66072,0.96677,0.099577,-0.4361,-0.7676,-0.53809,-0.15551,0.099534,-0.027962,-0.28303,0.20156,0.2526,0.023078,0.12505,0.40565,-0.283,-0.41061,-0.64005,0.099546,1.8847,0.023108,-0.74195,-0.10451,-0.002479,-0.30851,-0.002423,-0.1045,0.048567,-0.079051,-0.28308,0.40562,0.38011,0.15057,-0.28301,-0.35951,0.09954,0.45661,0.023041,-0.079008,0.12507,0.38022,0.17604,-0.30849,-0.10448,-0.23202,-0.30854,0.099564,-0.23197,0.8646,-0.002436,-0.283,-0.053495,0.27807,0.53314,0.73709,-0.66553,-0.69106,0.17598,-0.43604,-0.33401,-0.15548,-0.078972,0.30361,0.40566,0.53317,0.023005,-0.15551,0.22705,-0.002497,-0.46152,-0.48709,0.048506,0.5842,0.68616,0.12509,-0.53803,-0.53804,0.4056,-0.002534,-0.25754,-0.86958,-0.20648,0.25254,0.73717,0.074051,0.5077,0.22706,-0.51254,-0.35955,0.38001,0.20152,-0.46147,-0.48696,0.023047,0.32903,-0.1045,-0.18098,-0.10447,-0.30845,0.099564,0.94107,-0.00254,-0.10448,-0.51246,-0.12995,0.27807,0.074038,-0.078984,-0.25751,0.20154,-0.20647,-1.0227,0.12507,0.96669,0.89026,-0.18099,-0.56359,-0.25751,-0.30856,0.2271,-0.20653,0.04858,-0.20647,0.15056,-0.1045,-0.23202,-0.30854,-0.053451,0.25253,0.0485,-0.25759,0.60973,0.2782,0.40563,-0.00251,-0.58908,-0.23203,0.074008,0.023047,-0.078972,-0.181,0.25259,-0.078947,0.25259,0.25262,0.40557,-0.53803,-0.66554,0.023005,0.55856,-0.28304,-0.35945,0.38006,0.63509,-0.28298,-0.43599,0.023047,0.30356,-0.027969,-0.23199,-0.13,0.099552,0.32912,-0.283,0.45667,0.22707,-0.23202,-0.1556,0.2526,0.20158,0.023035,-0.38506,-0.10453,-0.1555,-0.2065,0.25262,0.17609,0.02301,-0.25756,-0.20652,-0.15548,0.15057,-0.30849,0.12507,0.53307,0.32921,-0.20644,0.35459,0.30354,-0.23199,-0.18101,-0.28304,0.20153,0.27803,-0.64008,-0.10447,-0.053458,0.048561,0.25261,-0.053458,-0.48707,0.3036,0.45661,-0.053342,-0.15557,0.074026,-0.10448,0.66071,0.22708,0.099454,-0.81871,-0.46154,0.40561,0.25262,-0.7676,-0.56353,0.40564,0.55869,-0.10448,-0.078977,0.048561,0.50764,-0.053544,-0.079045,0.048585,0.25264,-0.18102,-0.92065,0.27798,1.2728,-0.33397,-0.92059,-0.18105,0.12501,-0.41049,0.35456,0.32904,-0.027938,-0.25751,0.27812,0.40558,-0.12995,-0.25748,0.15059,-0.33403,-0.84418,-0.53814,0.50768,0.50761,0.66067,-0.20649,-0.81865,0.25262,0.30367,-0.027931,0.22703,-0.51262,0.048561,-0.25749,-0.15551,-0.002546,0.15057,0.048629,0.27818,0.023047,1.0176,0.15059,0.074057,-0.25754,-0.76763,-0.81864,0.17607,-0.43613,0.099546,0.023121,0.2271,0.63519,-0.79307,0.76275,-0.15546,0.048536,-0.002528,0.73704,0.099546,-0.41057,-0.079002,-0.15543,-0.078935,-0.38505,0.45665,-0.53798,0.60965,-0.1045,-0.41057,0.15054,0.22707,0.20155,-0.20652,-0.30855,-0.25752,0.12509,0.074093,-0.12998,0.30356,0.48218,0.22707,-0.2575,0.17603,0.20153,-0.61455,-0.38505,-0.18094,0.5076,0.27808,-0.2575,0.20155,-0.13001,0.20153,-0.13,-0.74209,0.09954,0.48217,0.45667,-0.053458,-0.02798,0.17607,0.048506,-0.13002,-0.18101,-0.23202,-0.41054,0.17602,0.35461,0.25257,-0.86967,0.94128,0.15065,-0.30851,-0.079033,-0.053506,0.099577,0.17606,0.25262,-0.23201,-0.30852,-0.181,0.22702,0.50755,-0.18098,0.023059,-0.18095,-0.10442,0.48216,-0.12999,-0.30852,-0.079026,-0.027974,-0.13005,0.25256,0.22713,0.023059,-0.053495,0.17604,-0.2575,-0.2065,0.15062,-0.23208,0.55869,-0.18098,0.12507,-0.46155,0.073977,-0.15553,-0.027969,-0.28299,0.30356,0.40563,-0.05347,-0.48709,-0.30854,0.50769,0.89026,0.048531,-0.23204,-0.56353,0.12505,0.48212,-0.61461,-0.12998,-0.18097,0.83912,0.58414,-0.46152,-0.33399,-0.02792,-0.53809,-0.25754,-0.18094,0.15057,0.074038,0.43104,0.50759,0.12507,-0.027901,-0.46151,0.023041,-0.20649,-0.35955,0.12506,-0.28306,-0.15545,0.099534,0.50757,0.43113,0.048616,0.25272,0.074033,-0.00251,-0.74221,-1.0483,-0.027987,0.38017,0.60974,0.15054,-0.41059,-0.38506,0.099546,0.43113,0.099613,0.50772,0.60957,-0.30853,-0.10444,0.074044,-0.10447,0.15055,-0.53806,0.176,0.50749,-0.35954,-0.79302,0.15059,-0.35946,0.074087,-0.18102,0.32909,0.20157,0.17607,0.048561,0.17609,0.63509,-0.002521,-0.053482,-0.43602,-0.38499,-0.30851,0.20157,-0.18099,-0.30854,0.074044,0.35458,0.4057,-0.12999,-0.56363,0.023065,1.0687,0.27805,-0.18097,0.30364,0.45669,-0.5636,-0.94617,-0.5891,0.048567,-0.053482,-0.23197,0.8901,0.78816,0.048592,0.15059,-0.027969,-0.12989,-0.23201,-0.002491,-0.28306,0.63516,-0.74219,0.53322,0.48209,0.15062,-0.15557,-0.46153,-0.15546,-0.20644,0.09951,-0.25757,0.09951,0.35456,-0.25749,-0.20648,-0.18095,-0.56347,1.1961,0.53313,-0.10447,-0.48706,-0.002394,-0.10446,-0.23202,-0.181,-0.002497,0.20155,0.023029,-0.078935,0.023047,0.048543,0.17605,-0.13002,0.048549,-0.35956,0.15057,1.1454,0.45668,-0.28307,-0.76768,-0.86964,-0.13003,0.32911,-0.1045,0.074033,-0.56358,0.20153,0.30362,0.53315,-0.25743,0.30358,0.22702,0.074013,-0.64003,0.20159,-0.078879,-0.53801,-0.028036,1.1706,0.099552,-0.56354,-0.53804,0.22704,-0.2065,-0.2575,-0.10449,0.50755,-0.23194,0.099564,0.68615,0.20159,0.25264,-0.053476,-0.10453,-0.51259,-0.5126,0.2271,-0.28301,-0.078972,0.32909,0.25262,0.12508,0.023005,-0.078996,-1.1247,0.3291,0.63512,0.4821,0.2781,0.023096,-0.7931,-0.46159,-0.10447,0.4056,0.22709,0.023029,0.12504,-0.25746,0.17607,0.15052,-0.002443,-0.41051,0.32905,0.60956,0.099564,-0.38498,-0.66558,0.099479,0.20157,-0.35951,-0.28289,-0.35951,-0.20653,0.55859,0.45656,0.12505,-0.078972,0.048536,0.023035,-0.10447,0.07413,0.27808,-0.027993,-0.23193,-0.15553,-0.33405,0.073989,-0.18104,0.5587,-0.20653,-0.02792,0.20149,-0.05347,-0.71655,-0.41054,-0.23197,0.71168,1.0686,-0.20652,0.023078,-0.18095,0.17612,-0.027901,0.43104,-0.053555,-0.48703,-0.23204,0.09951,0.02298,-0.15544,-0.30841,0.048549,0.17604,0.30349,0.60968,0.20169,-0.1044,-0.23201,-0.23208,-0.3596,-0.35951,-0.283,0.023054,0.32904,-0.10445,0.02301,-0.18097,0.048592,0.074149,0.278,0.22697,0.17614,0.50771,0.023072,-0.76766,-0.002491,0.20161,0.099479,-0.20655,-0.13001,0.38013,0.048531,-0.58913,0.0741,0.12512,0.20159,0.48208,0.25252,-0.99706,-0.23202,0.38007,0.099546,-0.002485,-0.10446,0.023084,-0.10451,0.27809,-0.078972,-0.12998,-0.10443,0.20155,0.43109,-0.20644,0.074038,-0.181,-0.20655,0.89011,-0.2575,-0.33399,-0.18097,0.022998,-0.25748,-0.002448,0.15054,0.22708,-0.10449,-0.002418,0.074026,0.32905,0.32913,0.20155,-0.33401,-0.28302,-0.15542,0.4311,0.02301,0.023059,-0.41053,-0.25752,1.2218,-0.25753,-0.23209,0.023059,0.074026,-0.35951,-0.20648,-0.10452,-0.18096,0.25255,0.32909,0.58414,0.12509,-0.10445,-0.18095,-0.078996,-0.15551,0.023065,0.074118,0.30357,0.73708,0.278,-0.58904,-0.20644,-0.43602,0.074087,-0.10453,-0.53804,0.30366,0.30356,-0.35961,-0.07907,0.40553,0.12505,-0.25744,-0.43596,-0.053458,0.12502,0.20157,0.22712,0.30364,0.12507,-0.35953,-0.43604,0.43111,0.38009,0.58417,-0.15546,-0.61457,-0.64016,-0.43611,-0.38509,0.20163,-0.13001,0.40562,0.17607,-0.10439,0.6607,0.86473,-0.43605,-0.13005,-0.7166,-0.15558,0.32896,0.50767,0.43121,0.048598,-0.10445,-1.0226,0.15057,0.176,-0.18104,0.20155,-0.13004,-0.15549,0.38008,-0.12996,-0.078972,0.12502,0.30357,-0.053446,-0.20647,-0.078984,-0.078941,0.22706,0.27808,-0.002472,-0.43604,0.50757,0.099588,-0.20647,-0.10452,-0.38507,0.099564,0.074038,0.023047,0.22712,-0.002461,0.023023,0.17605,0.099503,0.83924,-0.56354,-0.86965,-0.43608,-0.43607,0.43105,0.78812,-0.053415,0.17611,-0.18091,-0.41049,0.60958,0.1506,-0.20647,-0.002467,0.048536,0.17603,0.27804,-0.002491,-0.56353,-0.5891,-0.1555,0.30356,0.58414,0.099608,-0.28296,0.40558,0.12499,-0.1045,-0.12994,-0.41054,-0.15551,0.22707,0.048536,-0.053451,-0.027956,-0.66549,0.023078,0.96663,0.63511,-0.25753,-0.71653,0.12504,-0.002503,-0.18097,0.27817,0.55866,-0.35957,-0.43609,-0.25759,-0.028023,0.20155,0.15059,-0.33394,-0.232,0.32912,0.60965,0.48212,-0.18097,-0.10441,0.17601,-0.079033,-0.53802,-0.7166,-0.20652,0.27804,0.53311,-0.181,-0.51248,-0.33395,0.76265,0.78806,0.43101,-0.56349,-0.58898,-0.28301,0.023047,0.27808,0.15054,-0.002503,-0.38497,0.32907,0.12505
