-0.2065,-0.12999,-0.2065,-0.18099,0.048536,0.023035,0.099546,0.12507,0.048549,-0.002467,-0.15549,-0.053495,-0.15552,0.22711,0.20159,-0.10451,0.048536,0.048525,-0.053476,-0.078977,-0.078977,-0.12998,-0.002461,0.048543,0.074051,0.099552,-0.30855,0.12509,0.30361,0.023041,-0.13,-0.1045,-0.027974,-0.002461,-0.078996,-0.13005,-0.028005,0.63519,0.40566,0.048561,-0.053464,-0.12998,-0.25751,-0.15548,-0.181,-0.07899,0.023041,0.12505,0.074051,0.12509,-0.078972,-0.15549,-0.078972,-0.078977,0.09957,-0.053495,-0.13002,-0.35959,-0.20653,0.38016,0.48216,-0.10449,-0.10447,-0.10448,-0.1045,0.023005,0.023017,0.074026,0.17607,0.20158,0.023059,0.12507,0.074062,-0.027944,-0.002467,-0.10449,-0.02798,0.048549,0.023035,-0.002467,0.023059,-0.15549,-0.15549,-0.053464,-0.078984,0.074038,0.20155,0.22705,0.17608,-0.002436,-0.053446,-0.10446,-0.23199,-0.25751,-0.13,0.074038,0.15054,0.15054,0.12507,-0.053464,-0.12997,-0.027969,0.15059,0.09957,-0.43609,0.099552,0.12507,0.25259,-0.0535,-0.23202,-0.20652,-0.13,-0.30852,-0.002467,0.074038,0.023023,0.12505,0.22707,0.20158,0.023054,0.048573,-0.078959,-0.181,-0.2065,-0.079008,0.048525,0.048518,0.15054,0.074038,0.023041,0.12508,-0.078959,-0.35951,-0.18097,0.023041,-0.079021,0.15057,0.3036,0.17605,-0.13002,-0.002479,-0.12999,-0.2065,-0.12999,-0.078972,0.074057,0.17609,-0.002467,-0.18101,0.17609,0.20161,-0.18101,-0.20649,-0.23202,-0.18101,-0.15553,-0.15553,0.20153,0.048536,0.099583,-0.15548,-0.12998,-0.12999,-0.12999,0.023035,0.22707,0.15056,-0.10452,0.074062,0.25262,0.099588,-0.33404,-0.18097,-0.078947,-0.1555,-0.027987,-0.053495,0.074033,0.20157,0.15057,0.17608,0.048555,-0.027969,-0.078984,0.074038,0.074026,0.22707,0.15054,0.099528,0.12506,-0.002461,-0.23202,-0.078972,-0.002436,0.023054,0.20158,-0.027993,0.074013,0.074033,-0.002461,-0.07899,-0.002467,-0.053458,-0.23202,-0.053482,0.023035,0.2526,0.20156,-0.002472,-0.12998,-0.10445,-0.12996,0.0741,0.074087,-0.027962,0.074044,-0.07899,0.048543,-0.002448,0.048567,0.15059,-0.078966,-0.078959,-0.053458,-0.027969,0.048531,0.048536,0.15055,0.09954,0.099564,0.074075,-0.02795,-0.078953,-0.20649,-0.078977,-0.027974,-0.027969,0.023029,-0.027969,-0.027974,-0.15548,0.22712,0.023072,-0.078972,0.048543,0.15056,0.023047,-0.23205,0.35462,0.27812,0.12507,-0.41057,-0.28303,-0.12998,0.15059,-0.027969,-0.053476,0.023005,-0.002472,-0.18101,-0.10449,0.048561,0.023065,-0.2065,-0.13002,-0.18104,0.023029,0.15056,-0.079002,0.12507,0.17607,-0.23201,-0.23201,-0.05347,-0.28305,-0.002497,0.12504,0.15054,0.12505,-0.23203,0.43117,0.30362,0.099588,-0.20652,-0.18101,-0.027987,-0.10452,-0.027974,-0.002454,0.099564,-0.053482,0.099583,0.09957,0.30363,0.099546,-0.078996,-0.027993,0.12504,0.12503,0.22707,0.023047,-0.002467,-0.2065,0.048561,0.17609,0.12506,-0.027993,0.20158,0.15058,-0.002454,-0.078959,-0.02795,-0.20649,-0.078959,0.023054,-0.027962,-0.053476,0.074057,-0.02798,-0.002448,0.25263,0.30365,-0.078966,-0.10447,-0.15549,-0.181,-0.05347,-0.002467,0.17608,-0.002448,-0.078977,-0.027974,-0.053451,-0.02795,-0.10449,-0.10449,0.22709,0.17606,-0.079002,-0.23202,-0.10449,-0.12998,0.023047,0.12505,-0.002472,0.099552,-0.002472,0.074051,0.20159,-0.027956,0.023035,0.048531,-0.2575,-0.078953,-0.28305,-0.002485,-0.027993,0.15054,0.048518,-0.002479,0.048536,0.074044,-0.20652,-0.053488,-0.027993,-0.33407,0.074057,0.45666,0.32912,-0.027974,0.023054,-0.181,-0.28301,-0.05347,0.023047,-0.002479,-0.002485,0.15054,0.12505,0.023029,-0.053464,0.048543,-0.05347,0.048543,0.048543,0.074038,0.074051,0.099559,0.09957,0.074069,0.12508,-0.18098,-0.002454,-0.12998,-0.20652,-0.15553,0.023041,0.45664,0.48215,-0.079008,-0.23203,-0.23201,-0.30851,-0.232,-0.053476,0.099564,0.074057,0.22707,0.15056,0.048555,0.074075,0.099577,-0.10448,-0.13,-0.079002,-0.002497,0.12505,0.17605,-0.053476,-0.10448,0.04858,-0.078953,-0.10446,-0.027969,-0.15549,0.15053,0.099534,0.20156,0.12505,-0.07899,0.32914,0.32915,0.023059,-0.25753,-0.18101,-0.20653,-0.25754,-0.0535,-0.027993,0.099552,0.17608,0.099559,-0.10447,-0.10447,0.023041,0.074038,-0.10449,0.15057,0.023041,0.17609,-0.10449,0.15059,-0.2065,-0.30855,0.12507,-0.002461,-0.079008,-0.0535,0.048531,0.17608,0.15059,-0.002443,-0.15547,-0.10448,-0.07899,-0.027969,-0.02798,0.099546,0.17606,-0.027962,0.023059,0.048561,-0.078966,-0.078966,0.074038,-0.027998,-0.002485,0.074038,-0.30856,0.074062,0.45664,0.38016,-0.33404,-0.078953,-0.078966,-0.13002,-0.18103,0.099546,0.023041,0.074051,0.023054,-0.002454,-0.027956,0.12507,0.099552,-0.053482,-0.1045,-0.07899,0.19971,0.1232,-0.078966,-0.002443,0.048598,-0.027938,-0.12999,0.023041,-0.053476,0.099552,0.074038,-0.15551,-0.078984,-0.002454,0.048567,-0.02795,-0.20653,0.048531,0.023029,0.22711,-0.07899,-0.027956,0.12508,0.048555,-0.12997,-0.18101,-0.13001,-0.10452,0.02301,0.17605,0.099534,0.023035,-0.078959,-0.053421,0.023059,-0.027956,0.2781,0.17606,0.15057,-0.18101,-0.181,-0.078972,-0.02795,0.048549,-0.027956,-0.078972,-0.078984,0.023005,-0.002503,-0.027993,0.074057,0.074069,-0.078966,-0.00243,0.099583,0.074062,0.099552,-0.028011,0.048531,0.099528,-0.18098,-0.41052,-0.25755,0.074062,0.43117,0.32912,-0.28309,-0.10453,0.074044,0.20158,0.074069,0.023059,0.1506,-0.12999,-0.05347,-0.20652,-0.33407,-0.002479,-0.20654,-0.002472,0.17607,0.40566,0.43115,0.074051,-0.10449,-0.15546,0.099588,-0.25754,0.20159,0.15055,-0.15554,-0.25757,-0.30855,-0.20653,-0.02795,-0.12997,0.048567,0.099583,0.074062,0.17607,0.27809,0.074044,-0.38509,-0.25752,0.60973,0.20162,-0.10449,-0.25756,-0.33404,-0.48711,-0.56363,0.30363,0.58422,0.66077,-0.53809,-1.0227,0.09957,0.53322,0.35458,0.35459,0.43113,-0.41064,-1.1503,-0.6146,0.22714,0.15064,0.60974,0.73725,0.78828,0.35465,-0.6912,-0.76773,-0.02798,0.15057,-0.23203,-0.053446,-0.385,0.20159,-0.002485,0.099448,0.17605,-0.38498,1.0433,0.63531,0.58424,-0.33405,-0.51257,-0.86967,-0.79316,0.27791,1.4,-0.97155,-0.74195,0.58423,0.50765,-0.51255,-0.69108,0.099546,0.3291,0.5332,-0.053458,-0.23201,-0.027871,-0.28303,-0.028072,-0.079051,0.63514,0.63526,-0.078886,-0.079039,-0.38503,-0.53807,0.15051,-0.002521,-1.2776,-0.078923,1.5532,0.66064,-0.66541,-0.10443,0.25252,-0.48706,0.20145,-0.23198,0.17612,0.66065,-0.15542,-1.1501,-1.1246,0.22689,-0.58902,1.5278,1.6552,-0.66558,-0.15544,-1.4561,-0.41036,0.43123,-0.15553,0.12495,0.584,-0.079051,0.43112,0.78816,-0.12995,-2.2212,-1.3542,4.4094,2.2928,-2.0172,-1.7111,-0.43578,-0.6655,-0.89519,0.99211,0.50766,-0.71656,-0.079075,0.94117,-0.002374,0.2271,0.099534,0.15054,-0.48702,-1.7878,0.35452,0.6351,2.2164,1.8337,-0.89507,-0.9462,-0.30861,-0.10464,-0.53801,-0.56332,-0.58897,-0.84409,-1.4819,0.63499,2.7266,1.5278,0.20164,-0.10441,-0.23203,-0.94609,-0.9717,-0.20652,-0.30856,-0.078947,-0.25762,-1.6601,1.2216,2.8284,0.45654,-0.33381,0.38027,0.45686,-1.7878,-0.5893,-0.71668,-1.2012,-0.97166,1.9359,0.68621,-0.25743,-0.92056,-0.35946,1.2727,1.5276,0.12501,-0.35953,-0.56355,-2.0681,-0.48705,2.6497,2.4204,0.71181,-1.7365,-1.9662,-0.89505,-1.0737,-0.027993,0.022956,-1.4566,-1.1249,2.7523,2.9054,0.94124,-0.6147,-0.74226,-0.5637,-1.2013,-0.43619,0.07394,-0.51254,-0.027876,0.15071,-0.027852,0.074044,0.71173,0.91575,-0.078953,0.176,-0.74209,-0.078972,-0.20663,0.43099,0.55876,0.60989,-0.81869,-1.0483,0.022961,-0.20641,-0.53811,-0.2066,0.58405,0.2271,0.17604,0.30358,-0.15557,-0.02798,1.0943,0.43129,0.63528,-0.10438,-0.51262,-0.1556,-0.23214,-1.2013,-1.0226,0.86471,1.2727,0.099528,0.17602,-0.66548,-0.3594,-0.20644,-2.1448,0.71139,2.1654,1.8341,0.07424,-1.2267,-1.3288,-0.5636,-0.002467,0.176,-0.10462,-0.20657,-0.079033,0.53318,1.0689,0.2526,-0.20647,-0.28298,-0.15548,-0.53814,-0.028078,-0.56352,0.2781,-0.078935,-0.86965,1.5786,0.99234,-0.2829,-0.3852,-0.38503,-0.078947,-0.71646,-1.099,0.58402,-0.6911,-1.0736,1.0686,1.2982,0.45653,0.58417,-0.33391,-0.97147,-0.18086,-0.15549,-0.002534,-0.002454,-0.10458,0.25252,0.38016,-0.18096,-0.15556,-0.61471,0.27809,0.73725,0.55872,-0.078966,-0.35951,-0.56361,-0.2065,-0.23202,-0.33409,-1.6859,0.76282,1.3493,1.4769,0.022986,-0.00243,-1.0226,-0.10449,-0.10452,-0.18101,-0.38512,-0.4871,0.40552,2.1397,-0.92054,0.68614,0.20161,0.45672,-1.201,-2.0682,-0.46134,0.78815,0.40557,0.45652,-0.74212,-0.23207,1.4,0.86461,0.94114,-0.48685,-0.69104,-0.76758,1.4766,-0.20636,-0.35931,-0.053304,-0.99717,-0.76772,-0.13006,-0.64025,0.99228,1.3493,0.15048,0.58416,0.58422,-0.18101,-0.89522,-0.46159,-0.84417,-1.0227,0.73723,1.0942,0.048604,0.35475,0.074142,-0.99693,0.58397,0.66043,-0.66564,0.83904,0.20153,-3.2158,0.71166,2.8283,0.76261,-0.28297,-0.94587,-0.84392,-0.89512,-0.13003,0.099521,-0.46169,-0.05366,1.0942,1.4513,2.14,-0.28305,-1.1247,-0.46144,-0.99716,-1.1248,-0.20654,-0.41057,-0.15549,0.30366,0.1251,-0.41057,0.30364,0.099601,0.17619,0.91553,0.15058,-0.64003,-0.81864,-0.81868,1.6552,0.63507,-0.94595,-0.9715,0.86467,-0.002448,-0.25757,2.5477,-0.38494,-1.4306,-0.41054,-0.28306,-0.58897,-0.69101,0.6351,0.32907,0.5076,0.3035,0.099521,-1.6091,0.73696,1.8336,0.50776,0.099779,-0.89498,-0.56357,-0.58903,-0.5381,-0.027998,-0.028011,-0.84426,0.48216,0.30364,0.12514,0.86476,0.22705,-0.15554,0.35464,0.1251,-0.64013,-0.81872,-0.7677,-0.35945,0.074167,2.0123,0.63512,-0.002443,0.30348,-1.4306,-0.76764,1.1451,1.2473,-1.15,-0.81858,0.99203,-0.86952,0.15048,0.15054,-0.41038,0.023059,0.76256,-0.69104,0.35465,0.17607,-0.56366,0.9666,0.9922,-0.15545,-0.58905,-1.0483,0.76267,0.20169,-0.61449,-0.51255,-0.12993,0.86464,0.35424,0.66083,-0.5379,0.38012,-1.2267,-0.74204,0.099546,0.023005,-0.76763,0.074038,0.099424,1.3493,1.5023,0.66062,-0.9716,-1.6601,-0.793,2.0376,1.3237,-0.94603,-3.0117,-0.51248,1.8591,-1.6345,-0.20655,2.6242,0.96667,-1.2519,0.17598,0.992,-0.46156,-1.0226,-0.84398,-0.5891,0.25257,0.43115,0.58411,0.71163,-0.41054,-0.23217,-0.41072,1.5535,1.5281,-0.33401,-1.2523,-1.6858,0.023047,1.0177,-0.35961,-0.92062,0.35461,-0.51255,-0.18101,1.1197,1.1966,0.35479,0.50753,-0.8698,-1.1757,-1.3797,1.9357,1.6297,-0.33404,-1.4052,-1.5579,0.58418,0.83905,-0.283,-0.15548,0.66057,0.55856,-1.0225,0.5586,0.40561,-0.76757,-0.002381,-0.56342,0.55858,0.96658,-0.64014,-0.6146,-0.30852,-0.002454,-0.05347,-0.18099,2.5732,0.3546,-0.1553,-0.56344,-0.46147,-0.51254,-0.23203,-1.2779,0.76275,0.50769,0.48209,-1.6603,0.68606,2.1906,-0.6145,-0.99696,0.68605,0.81353,-1.3031,-0.12969,0.25274,-0.027895,-0.46161,-1.9662,1.2981,2.4456,1.4256,-1.5581,-0.69092,-0.48697,-0.43598,-0.38495,0.50759,0.32904,-0.027931,0.68612,0.89025,0.048585,-0.51262,-0.64006,-0.30847,-0.2066,0.48214,0.27808,-0.71661,-0.002534,0.91552,-0.053476,0.25273,0.099668,-0.56348,-0.71658,0.96653,-0.43609,-0.58916,-0.3086,1.0178,0.45673,-0.2319,-0.38513,0.22702,0.15066,-0.028005,0.5839,-0.43613,0.17606,-0.38489,-0.76757,0.023041,-0.8951,0.60958,0.96678,0.63517,0.68602,-0.23204,-0.9461,-0.48706,0.40555,0.53312,-0.002528,0.38003,-0.15543,-0.002387,-0.43606,-0.79318,-0.30861,-0.81867,1.5279,1.1963,-0.1809,-0.66561,0.63489,-0.58905,-0.92069,-1.1501,1.2982,1.3238,-0.76752,-0.64001,-0.58901,0.68611,0.78807,-0.41044,-1.3032,0.58421,-0.23199,-0.078928,1.3746,0.89011,-1.1755,-0.12987,0.58412,-0.15562,-0.48713,-0.25753,-0.12991,0.022974,0.55859,-0.25741,-0.2065,0.17595,-0.41052,0.86478,0.58427,-0.487,-0.46162,-0.28318,-0.027944,-0.15555,0.099515,-0.15542,0.27808,0.89019,-0.28306,-0.35954,0.45672,1.3748,-0.10448,0.35449,-1.0482,-1.2521,0.02295,0.25244,-0.53807,-0.41055,0.048561,0.73717,-0.94597,-0.81839,3.313,2.1652,-1.5837,-1.2777,-0.15553,-0.23197,-0.41044,-0.2574,0.074013,-0.25755,0.227,0.32905,-0.53813,-0.43609,0.81379,1.1964,-0.51266,-0.46167,-1.941,-0.15532,0.58422,2.0125,-0.99709,-0.079081,-0.43609,-0.078837,-0.94606,-0.81868,0.7626,0.68611,-2.2213,1.5533,2.1909,-0.002363,-1.6602,-0.13013,-0.23203,-0.436,-0.25746,-1.201,1.1452,1.2216,-0.078984,-0.48701,-1.099,0.09954,1.6296,-0.002516,-0.002363,-0.38499,-0.81856,-0.30859,-0.3595,-0.38506,1.0686,0.6351,-0.66551,-0.46154,0.12504,-0.10446,-1.0992,-0.078879,0.12506,1.5279,0.38011,-0.283,-0.10446,0.12509,-0.41054,-0.10467,-0.6146,-2.3232,2.0376,2.1142,-0.15545,-0.28286,-1.2265,-1.3031,-0.43595,1.5277,1.1961,0.91559,-0.30851,-0.89521,0.89007,0.1251,-0.99692,-0.92055,-0.71652,0.38011,0.22708,-0.20659,-0.41056,0.71158,1.1196,0.81359,-0.23218,-0.28295,-0.74197,1.2985,1.2219,-0.35943,-1.1247,-0.74217,-0.48723,-0.028072,-0.18099,0.55868,-0.20653,-0.02792,-0.18094,-0.12997,-0.61454,1.5276,2.1142,-0.20658,-0.66538,0.099601,-0.25746,-0.89495,-1.6857,-0.92062,1.5531,0.94112,0.12519,-0.10453,-0.10467,-0.027907,-0.48696,0.1507,0.32907,0.15059,-0.48703,-0.33405,-0.002607,-0.38513,0.45663,1.0431,1.6554,-0.84404,-1.4306,-1.1245,-0.33399,0.533,0.022974,-0.25751,-0.69101,1.0686,1.0431,-0.28292,0.66058,0.27811,0.50767,-1.2521,-0.48694,-0.64017,0.20163,0.35465,-0.12993,-0.74201,-0.53812,1.5021,2.0377,-0.64003,-1.2265,-0.97152,-0.86951,0.022968,0.09954,-0.38503,0.099528,0.17612,0.48202,0.22697,0.63512,-0.28287,-1.0991,-0.027889,0.71169,1.1454,-0.8696,0.27798,0.48193,-0.61462,-0.38506,-0.5636,-0.41046,0.27812,0.38005,0.4312,0.074044,-0.2575,-0.53798,0.27806,-0.078984,-1.3031,0.76257,1.9611,-0.053366,-1.2266,-1.4051,-0.94604,0.76262,0.27814,0.63508,0.32896,-0.028018,0.15061,0.073965,-0.12989,-0.74196,-0.078825,-0.35958,-0.053531,-0.33391,0.53306,0.25258,0.099466,0.66045,0.89021,-2.4507,0.96661,1.2727,0.023163,-1.3797,-0.61455,0.48203,-0.35953,-0.81851,0.50759,0.86455,0.53311,-0.15546,-0.28292,-0.28301,-0.13004,0.73723,0.023072,-0.18098,0.68608,-0.38499,-0.30849,-0.20652,-0.23206,-0.79307,0.32899,-0.10447,2.8027,3.1342,-1.3031,-2.4761,-1.1243,-0.53787,-1.4053,0.17604,0.38005,0.50757,0.20145,0.40551,-0.20657,0.686,0.176,0.04861,-0.1554,0.27808,0.35465,0.1507,-0.027846,-0.30861,-0.61475,-0.89515,-1.1501,-0.30841,2.2162,0.81361,-0.053378,-0.078788,-1.303,-0.76763,-0.41057,0.58406,0.9921,-0.15539,0.12498,-0.15554,0.27813,0.30353,0.099473,0.32904,-0.41052,-1.2011,-0.97158,-0.078837,0.76276,0.32897,-0.30858,0.22696,0.30347,0.50762,0.023084,-0.43593,0.048549,-0.2066,1.4515,0.048678,-0.38502,-0.10462,-0.99726,-0.8952,0.68625,0.20168,-0.12994,-0.56357,0.71148,-0.76745,-0.027871,1.5531,1.7062,-0.48698,-1.7366,-0.74194,0.6352,0.55866,-0.61455,-0.74209,-0.28311,0.099466,0.12497,0.45659,1.1961,0.099577,-0.61441,-0.51244,0.09951,-0.30851,-0.13001,0.099552,0.17603,-1.1245,0.50753,0.76241,0.45657,-0.053329,0.40562,0.023212,-0.84408,-0.89519,-0.46159,-0.48715,-0.74223,0.27807,1.2985,2.5225,0.20158,-0.69118,-0.028085,-1.2012,-0.97174,-2.0427,1.4513,1.7317,1.6298,-0.76735,-1.2775,-0.76752,-0.97156,1.2981,0.32898,-0.5126,-0.58901,0.45662,0.83909,0.83914,-0.58901,-0.46148,-0.1045,0.048518,-0.33401,0.48208,-0.38497,0.25259,0.5841,0.83908,-0.71654,-0.97152,-0.30852,-0.20651,-0.58908,0.17602,1.1197,0.55861,0.96672,-0.61455,-0.66547,-0.53801,-0.027969,0.27808,-1.1757,-0.28318,0.83904,1.2982,0.22718,-0.99702,-0.027974,-0.10448,-2.0171,-0.053446,2.6753,1.1451,-0.74206,-0.58918,-0.38494,-0.79301,-0.35939,-0.92057,0.45666,1.5531,0.73717,-0.18107,0.55857,-0.76763,-1.1246,-0.71653,0.048573,-0.078972,0.15064,0.27806,0.76258,-0.64003,-0.38511,-0.92063,2.2164,2.3441,-0.15533,-2.2978,-1.7368,1.0177,0.48207,0.58413,-1.7112,-0.23213,0.53299,-0.15551,0.023133,-0.61451,0.43115,0.074062,0.4822,0.5586,0.176,-0.20654,-0.53799,0.15061,-0.23197,0.78805,0.176,-0.38494,-0.51248,-0.64003,-0.12999,0.78812,-0.46156,-0.20635,-0.35946,0.048592,-0.15554,0.17601,0.12506,0.20156,-0.4617,-0.053476,1.6556,0.91591,0.55859,-0.30858,-1.1248,-1.3033,-0.74218,-0.002443,-0.2574,0.25259,1.2218,0.43109,0.099534,-1.4052,-0.61454,0.78825,1.5023,0.71152,-0.002491,-0.74215,-1.201,-0.56349,-2.2468,0.81361,2.1908,2.3948,1.5276,-1.9662,-1.6091,-0.81851,0.48214,-0.35946,-0.4615,0.35456,0.48206,0.22701,-0.1045,0.27812,0.58409,1.4259,-0.12987,-0.6146,-0.078984,-0.18102,-0.58913,0.048525,0.20159,-0.33409,0.048506,0.20161,-0.43607,0.73729,0.48218,0.22708,-0.46157,-0.43609,-0.13,0.53304,0.37997,-1.0225,-0.053397,0.48207,-0.43604,-0.64008,-0.58901,0.20163,2.1397,1.0176,0.63522,-0.7675,-1.4816,-1.7366,0.78811,0.32901,0.58405,0.074038,-0.92056,-0.23196,-0.027944,-0.002418,0.63508,0.68605,-0.41054,-0.51254,-0.15548,0.30366,-0.81868,0.023194,1.5278,1.5023,-1.4054,-0.2321,-0.69103,-0.078801,-0.18094,-0.48707,-0.30866,-0.30858,0.43113,0.45662,-1.1246,0.58408,0.55861,0.074026,-0.20648,-0.12998,-0.64013,0.048616,1.0689,0.81376,-0.15552,-1.1756,-0.33409,0.635,0.022913,-0.35962,-1.048,-0.38477,1.5022,0.73708,-0.10448,-0.92051,-0.66553,-1.2521,0.99203,0.66055,0.58414,0.048567,0.12505,-0.027993,-0.76755,-0.12997,0.35467,0.20161,-0.25756,-0.181,-0.078966,-0.3341,1.0177,-0.027974,-0.41049,-0.5126,-0.027969,0.83932,0.60971,0.12509,-0.53804,-0.66569,0.048342,-0.38507,-0.86958,-0.58901,2.5733,0.9413,-0.53799,-0.7675,-0.28298,0.023017,1.1707,-0.18101,-0.89507,-0.79303,0.38008,0.099546,0.17602,0.89009,-0.20651,-1.5581,0.35454,1.4001,0.76271,-0.97154,-0.84403,-0.76758,0.25256,0.073917,-0.15541,-0.20664,0.68627,0.32919,0.02309,-0.10458,-0.3851,-0.48712,-0.41059,0.12509,-0.15545,0.43115,0.45656,-0.20647,-0.89504,1.3746,0.3546,-0.43603,-0.66553,-0.58905,-0.002467,0.89023,0.76272,-1.2011,-0.5381,1.0941,0.45652,-0.53801,-0.99719,-0.078904,-0.23188,0.15061,-0.28306,2.2417,0.45667,-0.28298,-0.5891,-0.86959,-0.86958,-0.30853,0.27805,0.55867,0.15054,-0.028011,0.15058,-0.053544,0.048592,0.43121,0.43117,-0.28301,0.073971,-0.15557,-0.5125,-0.283,0.68616,0.73709,-0.589,-1.1501,-0.81861,0.83908,0.35478,0.63515,-0.10455,-0.23201,-0.053568,-0.48705,-0.69111,-0.5381,0.27809,0.58413,0.12508,-0.053421,0.45666,0.099588,0.20154,1.5276,0.20151,-0.97155,-0.92053,-0.48698,0.25254,0.5076,-0.58902,0.27805,-0.20656,-0.76754,-0.15543,-0.10444,0.20159,-0.13008,0.38007,-0.66569,0.83915,0.1506,1.7319,0.83926,-0.28295,-1.0227,-0.58906,-0.10453,-0.13012,-1.3286,-0.53806,1.7572,0.17609,-0.63991,0.074051,-0.10447,-0.56352,0.32907,0.074062,1.5022,-0.12999,-0.35949,-0.15555,-0.94611,0.53314,0.20157,-0.35957,-0.46151,-0.027998,-0.15547,0.12516,-0.027938,-0.38505,0.2015,-0.334,0.68608,0.60955,-0.15557,-0.56358,-0.20642,-0.18094,1.273,0.45665,-0.30847,-0.79309,-0.89526,-0.69111,0.50752,-0.053544,-0.10448,0.17618,0.22709,0.048494,0.50763,0.89019,0.099583,-0.69104,-0.76752,-0.81845,1.3747,0.91549,-1.3032,-0.71651,-0.053378,1.4767,1.0941,-1.2776,-0.33406,0.99208,0.32914,-0.99705,-0.33406,-0.28309,-0.002381,-0.02795,0.17604,0.1505,0.48214,0.58413,0.27804,-0.48716,-0.10449,0.40568,-0.385,0.5075,-0.51253,-0.86959,0.12503,0.2781,0.30361,-0.35959,-1.0483,0.04861,0.50757,0.48205,0.40564,-0.53806,-0.53798,-0.56354,0.81367,0.35458,-0.66547,0.99215,-0.078972,-0.46156,0.022968,0.73704,-0.1555,-0.385,-0.86947,-0.66548,-0.5125,-0.078972,0.9666,0.30354,0.48211,-0.33393,0.20155,0.99208,-0.053506,-0.48702,-0.61452,-0.69103,-0.53798,0.45666,0.63511,-0.002369,0.50755,-0.02809,-0.25749,-0.38497,0.53313,0.048647,0.048555,-0.38514,-0.25752,-0.2065,-0.053555,0.023054,-0.053451,-0.92054,-0.23208,1.4003,1.2472,0.40575,-0.64007,-0.7931,0.22706,-0.35966,-0.99713,0.023029,0.17611,-0.46147,-0.078972,-0.078977,0.073984,0.38003,0.83905,-0.079014,-0.46153,0.9921,-0.30853,0.48221,0.20155,-0.15547,-0.41054,-0.7676,-1.0993,-0.28305,0.58422,0.50771,-0.053513,-0.4361,-0.002491,0.30356,0.12506,0.17611,-0.28301,-0.027956,1.0941,-0.25751,-0.79304,-0.76757,0.8901,0.58428,-0.43587,-1.0736,-0.74214,0.48208,-0.436,-0.053544,0.63503,0.27803,0.43106,-0.28305,-0.74201,-0.20636,0.35459,-0.51258,-0.10449,1.2473,0.15055,-0.18101,-0.1044,-0.18094,-0.12998,-0.66576,-0.079075,0.023005,1.2729,0.40571,-0.71663,-0.46161,-0.078953,-0.053451,-0.25757,-0.25759,0.38017,-0.28309,0.38005,0.15062,0.20167,-0.43593,0.48204,0.30354,0.86464,-0.94601,-0.89508,0.38002,0.48208,-0.61448,0.81362,0.30357,-0.76754,0.50761,-0.79308,-0.25754,0.76256,0.023065,0.048518,-0.35948,-0.41055,-0.12998,-0.25747,0.20158,0.55858,0.30352,-0.25755,0.048604,0.30371,0.60969,-0.81866,-0.64009,0.023133,0.55869,-0.18107,-0.053537,-0.38513,-0.053495,0.04858,-0.12997,-0.38508,0.25265,-0.002423,-0.18101,-0.18103,-0.41043,0.66071,2.0123,0.45653,-0.69102,-0.078917,-0.48702,0.35454,-0.23201,0.329,-0.74208,-0.97158,-0.18098,0.2271,-0.41047,0.048543,1.8591,0.09954,-0.28297,-0.61462,0.1506,0.68629,0.35464,0.17596,-0.79306,0.43106,0.02295,-0.46149,0.02317,-0.53805,-0.283,-0.58911,-0.58903,0.35448,1.6808,1.4005,0.2782,-0.58908,-0.43609,-0.69111,-1.6604,-0.41063,0.94122,0.89029,0.27811,-0.10449,-0.027987,-0.30854,-1.1501,1.0941,1.9103,0.63517,-1.2266,-0.28303,0.58407,0.32906,-1.2011,-0.078966,0.45651,-0.66555,0.09954,-0.12997,0.22707,0.2526,-0.38494,0.2016,0.50763,-0.48696,0.32906,0.66057,0.099552,-0.3851,0.099681,-0.027882,-0.078947,-0.027962,-0.30855,-0.53809,-0.13005,-0.33408,-0.18103,0.25248,0.45661,0.6863,-0.28298,0.35475,0.35464,-0.25753,-0.25755,-0.4616,-0.30856,-0.15561,-0.30859,-0.25748,-0.027876,-1.2266,1.6297,1.7318,-0.1044,-1.4306,-0.35948,0.83903,0.48204,-0.58898,-0.58903,-0.43604,0.50766,0.63522,-0.0535,-0.46157,0.023047,0.17607,-0.43603,0.53306,0.35444,0.25269,-0.5634,0.27819,-0.0535,-0.46155,0.25246,-0.30852,0.023103,0.38013,-0.538,-0.5635,-0.25753,-0.20656,-0.46159,0.12498,0.58419,0.20174,1.0941,0.53311,-0.43596,-0.35954,-0.43609,0.12514,-0.46154,-0.23203,0.099552,0.55868,-0.23207,0.12508,0.04858,-0.181,-0.1045,-0.79304,1.0431,0.17602,-0.76749,0.60961,0.7116,-0.38495,-0.35943,-0.002436,-0.002472,-0.69105,-0.23201,0.3546,-0.053488,-0.69104,0.35453,1.1706,-0.002461,-0.15548,-0.12999,-0.41046,-0.53798,-0.10458,1.6297,0.55871,-0.74204,-0.99713,0.023114,-0.053458,-0.46164,-0.25751,-0.28294,0.89027,1.2982,-0.10456,-0.5636,-0.43601,-0.61461,-0.23202,-0.10455,-0.5636,-0.02792,0.45664,0.66077,-0.028018,0.4311,-0.76748,0.55852,0.66061,-0.41042,-0.33402,0.20153,-0.12999,-1.0991,-1.2522,0.58402,1.0686,-0.002491,-0.4615,-0.3595,-0.20646,0.023005,0.3801,-0.00243,0.20158,0.4821,-0.13001,0.074026,0.073977,-0.33399,-0.18098,-0.30853,-0.28301,-0.56355,0.63501,0.17604,0.048592,0.15061,-0.10447,-0.84417,0.3802,-0.33398,-0.81869,0.86463,1.2983,0.78832,-0.71663,-0.079021,-0.35961,-0.64013,-0.58905,-0.20653,0.25262,-0.079008,0.4311,0.71165,0.20157,-0.86958,-0.23202,1.2983,1.6808,0.22715,-1.4052,-0.71658,-0.23201,-0.69108,-0.61462,-0.053555,0.048487,-0.027969,0.91562,0.38011,0.12509,0.5076,0.074062,-0.18094,-0.28297,-0.0535,-0.12997,-0.10443,0.12505,-0.181,0.074044,-0.13001,-0.41057,-0.41054,-0.20653,1.5531,-0.30844,-0.35937,1.2728,0.86458,-0.71654,-1.1757,0.023078,0.32914,0.76275,-0.20649,-0.43616,0.17593,-0.51257,-0.027944,0.17608,0.023029,-0.0535,0.17605,0.074051,-0.28304,0.1506,-0.18096,-0.10445,-0.35951,-0.20651,0.68613,-0.00243,-0.12993,0.73712,0.099534,-0.13001,-0.18096,-0.81855,0.22697,1.0942,-0.25748,-0.76759,-0.76749,0.9921,0.66059,-0.99706,-0.53798,-0.078941,0.40563,0.38009,0.02301,-0.079008,0.22704,-0.35959,0.27814,0.099521,0.27803,0.30366,0.048592,-0.33401,-0.56354,0.40547,-0.41061,-0.23195,0.76283,-0.25745,0.17611,-0.12994,-0.078996,0.048396,-0.15553,-0.30854,-0.28303,-0.33402,-0.20647,0.71161,0.30361,-0.18091,0.023047,0.40552,-0.002485,-0.027974,-0.15548,-0.74205,0.023023,-0.10458,-0.23198,0.83928,1.1963,-0.5891,-0.92067,0.35456,0.50755,-0.2575,-0.51254,-0.23197,-0.58908,-0.002454,0.25261,0.43109,0.09954,-0.18101,0.73723,0.60973,-0.3851,-0.028011,-0.41049,0.48209,0.17602,-0.56355,-0.5891,0.32915,-0.05347,-0.2575,-0.58908,0.20159,0.63506,0.55876,-0.027889,-0.69114,-0.74214,-0.89513,0.60952,0.55859,-0.10445,-0.63999,0.12513,0.22715,-0.027938,0.074002,-0.18103,-0.0535,-0.3341,0.27812,0.63518,-0.53792,0.50757,0.27802,-0.35954,0.048433,-0.74209,-0.76763,-0.002485,0.60964,-0.25751,-0.20645,0.94144,0.30364,-0.18102,-0.002503,0.0485,-0.028029,0.048518,0.04858,-0.30854,-0.43609,-0.43609,-0.23199,-0.027944,0.99227,0.48207,-0.12999,0.45655,-0.181,-0.64004,-0.4105,-0.41044,0.17617,0.073989,1.2725,0.2015,-0.027944,-0.61449,-0.20646,-0.385,-0.58902,-0.35948,-0.69101,1.0941,1.6807,0.27802,-0.3085,-0.232,-0.64,-0.25752,-0.13012,0.25268,0.15067,0.12517,0.22711,0.099454,1.1706,-0.71671,-0.8186,-0.078886,-0.3595,-0.43604,-0.027969,-0.6146,0.45656,0.76263,0.074013,0.5077,-0.02792,-0.053415,0.2271,0.09954,-0.69103,-0.35956,-0.58913,0.53315,0.35465,0.38008,-0.84406,-0.58902,2.0887,-0.28293,-0.76748,-0.20646,-0.61449,0.32905,1.094,0.30353,-0.28295,-0.18086,-0.51252,0.35453,-0.053537,-0.46157,-0.25755,0.15056,0.30363,-0.078984,0.17605,-0.38509,0.17609,0.20162,0.38023,0.71181,0.88999,-0.15558,-0.76764,-0.66562,-0.71665,-0.18095,-0.89516,0.3547,-0.35951,0.27809,0.66065,0.66064,0.71173,-0.13,-0.61465,-0.33403,-0.18099,-0.28296,-0.38497,-1.2521,1.5786,2.5732,0.48216,-0.71649,-1.1756,-1.0226,-0.41047,-0.10443,0.048561,-0.027931,0.30358,0.66059,-0.15548,0.45654,-0.18101,-0.078972,-0.18094,0.30363,-0.12992,-0.18105,0.1505,0.27805,-0.61457,-0.56354,-0.28298,0.25266,-0.69107,-0.18101,2.293,0.20163,-0.79302,0.07394,1.0431,-0.15549,-0.84415,-0.58911,-0.053427,-0.51255,-0.33407,0.22708,0.78823,-0.002516,0.30356,0.12511,0.38017,0.074013,-0.38501,-0.1554,-0.61457,-0.20647,0.27806,-0.30854,-0.053549,-0.079081,0.66067,0.76267,-0.53803,-0.61455,-0.35946,0.32909,0.38006,-0.1045,-0.23202,-0.20649,0.73707,0.50754,-0.58901,0.30361,-0.027987,-0.81859,-0.46158,0.12498,-0.28298,0.55864,-0.20642,-0.94605,1.8591,0.48208,-0.71651,-0.15545,-0.25747,-0.38506,0.22717,-0.053378,0.30364,-0.053537,-1.3544,0.45668,0.83933,0.30359,-0.38514,-0.15554,-0.002472,-0.15549,-0.51259,-0.027962,0.30361,0.96681,0.48214,-0.38503,-0.9206,-0.33409,-0.51255,0.43103,0.48208,0.45657,-0.20646,-0.35949,-0.41051,0.048543,-0.58916,0.27808,0.73718,0.91584,0.22715,0.17606,-0.3085,-1.2776,-0.23209,0.22696,-0.10454,0.048494,0.40557,-0.15547,-0.30847,-0.58905,-1.3541,1.1196,1.9614,0.32932,-0.74206,-0.15546,0.022998,-0.41061,-0.002588,-0.30861,-0.46161,0.099583,0.15061,0.099552,0.048555,0.07413,-0.10456,0.12499,0.76278,1.1455,-0.15545,-0.61465,-0.58916,-0.86972,-0.053519,0.20153,0.17595,-0.13012,-0.35949,0.17625,0.7882,0.50756,-0.66556,0.38013,-0.053544,-0.46152,-0.69102,-0.10447,0.73717
-0.12999,0.023035,-0.027969,-0.027969,0.023065,-0.12997,-0.23199,-0.10447,0.074057,-0.10451,-0.25755,0.15054,0.12505,0.074057,-0.027962,-0.027962,-0.12999,-0.15551,-0.25753,-0.079002,-0.079002,-0.002491,0.023029,-0.078984,0.15057,-0.078977,0.20163,0.023047,0.048525,-0.23205,-0.10452,-0.13004,0.12504,0.15059,0.30363,0.12509,0.023065,-0.10448,-0.12999,-0.20652,-0.10451,-0.10452,0.074051,0.074062,0.048561,0.17611,-0.053446,-0.078972,-0.027974,-0.027993,0.048512,0.17605,0.20158,-0.002461,-0.078977,0.1761,-0.15547,-0.10447,-0.12998,-0.13001,-0.079002,0.074026,0.15057,0.074062,0.17609,0.074069,-0.18099,-0.23201,0.023041,-0.18104,0.074026,0.27808,0.38013,0.074038,-0.078977,-0.05347,-0.10447,0.048567,-0.12998,-0.20652,-0.02798,-0.028005,0.074026,0.22709,0.17608,-0.027969,-0.053464,-0.10447,-0.027969,-0.18101,-0.027969,0.12505,0.048543,-0.078972,0.023047,0.074087,-0.02795,0.048567,-0.002454,-0.002497,0.099546,-0.027987,0.023035,-0.027969,0.023047,-0.002443,-0.181,0.023054,-0.078984,-0.15553,-0.053488,0.38012,0.15058,-0.30856,0.099564,-0.002461,-0.053476,0.048555,0.20158,0.048518,-0.079002,-0.18101,-0.10449,-0.12998,0.1761,0.099601,0.048573,-0.027962,0.023041,0.074051,0.023035,0.048512,-0.079002,-0.18105,-0.05347,0.2271,0.17609,-0.027969,0.048549,0.048518,-0.13002,-0.28307,0.20158,0.2016,-0.053476,-0.20652,-0.053476,-0.20653,0.20156,-0.053488,-0.002448,0.30362,-0.12999,-0.07899,-0.15548,-0.12998,-0.078941,-0.10446,-0.002472,-0.10452,0.074038,0.12504,0.15055,0.074044,-0.02798,0.15059,0.04858,-0.00243,-0.078972,-0.027974,-0.02798,0.023023,0.048525,0.09954,-0.027987,-0.053476,-0.05347,-0.28305,0.048531,0.35459,0.27809,-0.027998,-0.078996,-0.002461,0.2271,-0.027962,-0.18097,0.023065,0.15059,-0.20652,0.074051,0.15058,0.074062,-0.25754,-0.02795,-0.15549,-0.18098,-0.027938,0.12508,0.023023,0.099534,-0.13004,0.023005,-0.002454,-0.053464,0.27814,0.099577,-0.12999,-0.25753,0.048525,-0.23201,0.17608,0.048536,0.048531,-0.18101,-0.30855,0.048573,-0.10448,-0.053488,0.38011,0.17606,-0.027993,0.074062,-0.10451,0.099521,-0.12998,-0.23199,-0.12997,0.074062,0.30361,0.099559,-0.053495,-0.10452,0.25259,0.074075,0.048573,-0.38506,-0.35957,0.023054,0.17607,0.12508,0.22708,0.45666,0.38013,-0.35957,-0.41054,-0.33398,0.30356,0.38012,-0.25759,-0.20655,-0.58908,-0.23201,-0.00254,0.27812,-0.10443,0.27817,0.099595,0.074069,-0.66569,1.0432,0.099632,0.074081,0.50762,-0.30851,-1.0481,-0.079026,1.3491,-0.9461,-0.48703,-0.027993,0.048598,-0.002454,-0.15542,0.07416,0.71179,-0.002485,0.12501,-0.23208,-0.43614,-0.46151,-0.64008,0.9919,1.5534,0.94131,0.27821,-0.58893,-0.99708,-0.69111,-0.46162,-1.0992,-0.66555,1.6297,2.3182,0.63516,-0.58888,-0.6655,-0.71649,-0.58903,-0.71663,-0.20652,-0.181,0.53304,1.6807,0.63508,0.35461,0.074179,-0.48692,-1.0736,-0.002387,0.12511,0.50762,0.60946,-0.28314,-1.0736,-0.5634,1.247,0.66047,1.3746,-0.9716,-1.507,1.0942,0.12516,-0.99712,-1.3796,-0.69093,-0.79318,1.2727,0.55872,1.7829,-0.76762,0.66037,-0.23208,0.55864,2.6244,0.83915,-2.0682,-1.8132,-0.61443,-0.86951,-0.25753,0.35449,0.43107,0.60969,-0.69101,-0.86955,0.50763,0.7626,0.048427,0.048458,0.91565,0.58404,0.02298,-0.69099,-0.63991,-0.51233,2.4712,1.1962,-1.0481,-1.5327,0.22703,-0.58886,-0.25737,-1.1756,-0.38492,0.25251,0.88997,0.176,-0.92067,1.0941,2.0633,1.5787,-1.7111,-0.28299,-0.99708,0.38,2.4457,0.38008,-2.578,-0.97144,-1.2776,-0.46148,0.48209,1.5023,0.5331,-0.41061,-0.69106,-0.23201,1.6042,-0.33405,0.73695,-0.002552,0.023041,-0.58895,0.27809,-0.18093,0.99229,-0.97149,-1.2521,-0.23207,0.53311,0.35465,-0.38494,0.53306,0.71154,-0.079045,-0.48707,-0.58908,-0.053421,-0.15541,0.50772,1.9102,-0.13019,-1.9406,0.12505,0.76256,-0.30853,-1.8641,0.074185,0.25264,0.78814,1.1706,0.91562,-1.0737,-2.2211,0.099564,2.3182,0.12497,-1.1247,0.15068,-0.43596,0.048573,-0.002479,0.023041,-0.1044,0.35458,0.63502,0.048549,0.81376,-1.3797,-0.53814,0.20151,-0.64008,0.25253,0.58415,0.45676,-0.41042,-0.84418,0.22697,0.17607,0.2016,0.074069,-0.18098,-0.053433,-0.027993,1.2726,-0.38505,-0.66551,-0.12991,-0.7931,0.15059,-0.41054,0.73731,1.4258,1.4768,-1.5837,0.45645,2.0122,-0.30862,-2.2977,-1.7111,0.737,0.048647,0.099619,-1.0481,-0.46156,1.6041,2.2673,-1.507,-0.078959,0.58407,0.25263,-0.078904,-0.38502,-0.46158,-0.23205,-0.71668,0.17614,1.1964,2.0634,-0.20652,-1.3033,-0.8187,-0.46157,0.43117,-0.23204,-0.58911,-0.74214,-0.66555,0.60773,1.2727,0.27808,0.023181,-0.00251,-1.6346,1.2471,0.55864,0.40566,-0.46145,0.45654,0.17605,-1.9916,-0.81854,1.4766,1.4766,0.76258,-1.7366,-0.86957,-0.58905,-0.027871,0.12509,0.78808,0.91558,-0.23197,-0.12994,-0.10442,-0.20643,0.73706,0.43104,0.09954,-0.053544,-0.23203,-0.30845,-0.1044,0.023103,-0.79312,-0.10449,0.55873,0.35463,-0.13,-1.0483,-0.25773,0.6352,-0.18093,0.30351,-0.41058,-0.12991,-0.12991,0.66065,-1.0735,1.3747,0.94112,-0.15551,1.1451,0.12501,-1.6601,-0.46145,-1.1245,0.20155,-1.6091,1.4255,1.7316,1.0177,-0.3085,-0.66547,-0.86947,-0.71652,-0.41061,-0.05358,0.71159,0.4566,0.099491,0.0485,-0.053531,-0.35959,-0.12998,0.45677,0.22718,0.60979,0.71157,-1.3798,-1.1503,0.2526,0.43113,-0.2829,-0.10449,-0.46161,-0.53809,-0.25753,-0.079051,-0.46164,2.5478,0.099797,-0.66535,0.83903,2.6242,-1.3286,-0.76755,-0.76754,-0.94601,0.7626,-0.86948,-0.12991,0.35456,-0.76752,-0.33401,1.5021,1.5276,0.048536,-0.51252,-0.053458,-0.25746,-0.20644,0.20166,0.17608,-0.51265,-1.1502,-0.18108,1.0433,1.579,0.30367,-1.0482,-0.079026,-0.30855,-0.64018,-1.4052,0.94114,1.3747,-0.63999,-0.74203,0.60962,1.0942,-0.002345,0.91561,-0.25751,-0.79306,-0.74204,0.6606,-0.64006,-0.61441,-0.84397,1.1197,2.1651,0.48206,-0.6145,-0.58899,-1.5327,-0.76752,0.30361,0.30361,-0.18106,0.737,1.3746,-0.15554,-0.41055,0.27812,-0.25744,-0.25736,-0.58901,-0.3596,0.73704,0.099657,0.8138,-0.71646,0.12497,0.8646,-0.61449,-1.3032,-0.69108,-0.05347,0.329,-0.1554,-0.23201,0.3036,0.96653,1.4257,-0.23196,-0.63999,-0.86953,-0.84413,1.7317,-0.078819,-0.63992,-0.10454,0.17595,1.6042,-0.53802,-1.6091,-1.2011,0.99205,0.66055,0.048634,0.023096,-0.18097,-0.94603,-0.20655,1.3491,0.76261,-0.18098,-0.56356,-0.56351,-0.487,0.73706,0.15057,-0.15541,-0.41046,-1.1247,0.074136,0.48219,1.5535,1.8846,-0.92067,0.17576,-0.41057,-1.4051,-0.1554,-2.1191,-0.053421,1.0176,-0.20654,-0.30855,0.30363,0.58413,0.83913,-0.25749,-0.46155,1.0176,-0.15558,-0.33405,1.1708,1.426,-0.94608,-1.6857,-1.4816,-0.79306,-0.078947,0.17609,0.50757,-0.33415,0.2015,-0.181,0.89019,0.9921,0.09957,-0.69098,-0.35942,0.48211,0.43101,-0.002412,0.55862,-0.41043,-0.9971,-0.844,-0.38505,1.8846,1.043,-0.5635,-1.3796,-0.61454,0.40571,-0.58901,-0.76761,0.86469,1.1961,0.7117,-0.13003,-0.13006,-0.43602,0.37996,-0.56356,-0.99706,-0.10442,0.89006,1.4511,2.0123,-0.48682,-1.9405,-0.41055,0.45657,-0.38498,-0.38499,-0.51257,-0.20652,-0.46157,-0.053488,0.66059,0.86456,0.50762,0.09957,0.1506,-0.48703,-0.46159,0.12506,0.048573,-0.25743,-0.23203,0.023023,0.278,-0.25754,-0.35942,0.83917,1.1196,1.5276,-1.0991,-1.1501,-0.63996,-0.5379,-0.94614,0.43115,0.35459,-0.69107,0.76253,0.60953,-0.028066,0.20152,0.30356,0.099613,-0.74194,-0.20638,0.2016,-0.002467,0.22704,0.43107,0.91563,-0.92054,-0.86958,-0.15546,-0.89501,-0.053482,0.43103,0.50747,0.27803,0.09951,-0.58902,2.0632,0.35448,-0.84406,-0.35937,0.66086,-0.078966,-0.35962,0.76256,-0.33399,-1.0992,-0.41039,0.76264,1.8593,1.0941,-1.0736,-3.1139,-0.181,2.3182,-0.41048,-0.86958,-0.002363,1.0688,-0.02792,-0.48707,0.022986,0.53317,-0.28306,0.227,0.58409,-0.25745,-1.8131,1.0431,1.9612,-1.2011,-1.2011,1.6041,-0.69103,-0.41051,0.074038,-0.58904,-0.69103,-0.18091,1.2218,0.17605,-0.41053,0.20152,0.43102,-0.028011,-1.4562,1.9359,0.94117,0.17626,-1.2522,-0.89511,0.25273,-0.23193,0.78792,0.76253,-1.5581,-0.58909,0.63514,-0.12996,-0.74204,-0.38499,-0.053299,1.1708,0.66062,-0.46157,-0.23208,1.043,-1.2266,0.048487,0.76256,-0.078886,-0.7929,-0.74196,0.2271,-1.2266,0.63503,2.6497,0.73709,-0.94603,-1.099,-1.0226,-0.58901,0.78813,0.58407,-0.20649,-0.10455,0.25261,-0.002454,-0.002412,-0.10445,-0.181,-0.41063,0.074013,-0.33409,-0.15556,-0.15551,-0.00243,-0.20652,0.07416,-0.63995,1.0177,1.4513,0.63519,-1.1247,-1.5072,-0.38505,-0.20653,-0.20654,-0.079045,0.099588,-0.79299,1.0431,1.9357,-0.23189,-0.51245,0.78807,-1.0226,-1.2776,-0.25748,0.048653,-0.71648,1.0941,0.91558,-0.38503,0.12497,-0.027944,0.40558,-0.053476,-0.18091,0.278,-0.46161,-0.7676,-0.12996,0.9923,1.0433,-0.23187,-0.15563,-0.18108,-1.0482,-1.3286,1.0176,0.63514,-0.078966,0.048536,0.60962,0.3547,0.20177,-0.002467,-0.46162,-0.58907,0.074026,-0.79309,-3.1392,3.5679,3.0833,0.048494,-1.201,-1.048,-0.71649,-0.69105,-0.30854,0.048518,0.048525,0.278,0.40557,0.53306,0.35456,-0.23193,-0.15542,0.048543,-0.23202,0.38009,0.4567,-0.89516,1.1452,0.43101,-0.46154,-1.0227,-0.66561,-0.33404,-0.027882,-0.20648,0.074081,0.55869,1.2471,0.048476,-1.5582,1.6295,0.45664,-0.28289,0.023145,-1.2265,-0.30855,-0.25755,0.53301,0.83912,-0.41044,0.099521,0.20152,-0.41041,0.43115,0.91559,0.73715,-0.58903,-0.9716,-0.18094,-0.181,-0.053378,-0.46154,0.099564,-0.30859,0.71168,1.1964,1.1709,-0.43596,-0.079075,0.20139,0.37995,-1.0226,-0.86959,-0.43603,-0.10441,-0.20644,-0.92062,-0.71654,0.32912,1.6808,0.074087,-0.25751,1.5276,0.73708,-2.8332,-0.10453,2.0121,-0.9971,-1.8385,0.15064,1.2471,-0.10453,-0.053451,-0.20643,-0.002443,-0.41052,-0.15549,0.30352,0.3545,-0.38499,0.63514,0.58411,0.099632,-0.43597,-0.25747,-0.2065,-0.30852,-0.15562,-0.43613,0.02309,0.50773,0.12507,0.83925,0.17607,0.074106,-0.86966,-0.92079,-0.1812,-0.64017,-1.0991,0.27807,0.94098,1.1709,0.20188,-0.58875,0.048536,1.6551,0.074062,-0.53804,-0.92062,-1.0736,1.4255,0.94106,-1.7111,-1.0735,0.12509,-0.12998,1.1961,1.1451,-0.23196,-0.4871,0.074038,0.40575,0.38016,-0.84409,-0.76764,0.32905,0.27802,-0.027993,0.048592,0.17606,0.099466,-0.58903,0.15061,0.17622,0.27798,0.32909,-0.51257,0.27813,-0.86974,-0.18092,0.074093,-0.8186,1.0431,0.99218,-0.10448,-0.58902,-1.0226,-0.66564,-0.7166,-0.56348,2.1652,1.9612,-0.79297,-0.71643,-0.46146,0.86457,-0.64005,-0.51254,0.15058,0.27812,0.25257,0.71154,-0.38504,-0.71651,-0.2065,-0.33399,-0.25753,0.15048,0.30355,-0.078977,0.50769,-0.15549,0.074087,0.20159,-0.10446,-0.15554,-0.56368,0.63526,1.1964,0.3546,-0.89515,0.20139,-0.25759,-0.18097,-0.23202,-0.51259,-0.74206,-1.5581,2.7774,2.9813,-0.28292,-1.5836,-0.84399,-0.81861,-1.252,0.96659,1.043,0.71158,0.3801,-0.078935,-0.99707,-0.64001,-0.10437,0.30364,0.35456,-0.079008,0.25257,-0.9971,0.68605,0.89001,-0.078996,-0.2575,-0.12998,-1.1502,-0.053304,0.40574,1.6045,0.023017,-0.79314,-0.33416,-0.9717,-0.69124,0.32906,0.20151,-0.41051,0.73705,0.83913,-0.15532,0.1506,0.22709,-1.1246,-0.1554,0.048482,0.07402,-0.69104,-0.58913,3.058,1.6809,-0.61445,-1.6858,-1.6092,-0.35959,-0.23196,0.91563,0.73708,-0.74201,-0.35962,0.32904,-0.5891,0.15063,-0.053384,1.0943,1.4256,-0.53796,-0.58894,-0.41054,-0.81864,-0.15551,0.099503,-0.23194,-0.15543,-0.30854,-0.1045,-0.48718,0.074002,0.58412,1.7065,0.58423,-0.76771,0.25245,-0.66565,-0.61456,-0.46155,-0.053397,0.12509,-0.18102,-0.53811,-0.002448,0.38021,0.4312,1.9613,-0.15552,-0.69115,-0.232,-1.0989,-0.58899,-0.71661,-0.053544,0.55859,0.96667,1.1451,-0.46151,-0.97152,-0.51253,-0.20648,0.45656,0.60958,-0.079008,0.35458,-0.18095,-0.4104,-0.027876,-0.66563,-0.48716,0.35459,0.83931,0.43122,-0.61456,0.25245,-0.25749,-0.53812,-0.35956,0.2781,-0.51254,0.15054,0.30356,0.22706,0.023035,0.12505,-0.28282,0.40573,-0.13013,0.91556,0.17618,-0.28294,-0.84414,-0.4871,-0.38511,-0.71659,0.38006,1.1451,0.68624,0.17609,-0.20647,-0.81854,-1.2266,0.68611,1.4767,-0.053495,-0.078996,-0.1044,-0.12993,-0.76752,-0.20649,0.30351,0.9666,0.55859,0.12509,-0.74201,-0.33396,-0.48702,-0.35952,0.074044,0.38011,0.25259,0.22712,0.99203,0.12489,-1.5328,0.45664,0.89029,0.76291,-0.46152,-0.23197,-1.1757,-0.51259,0.099454,-0.4617,0.35459,1.0432,-0.20644,0.07424,0.074149,1.0941,0.30347,-1.6346,-1.0736,-0.18097,1.2727,0.17604,0.12503,-0.69088,0.58417,0.81361,-0.10452,-0.35954,0.20155,-0.38504,-0.589,-0.18098,0.40556,0.22707,-0.69117,0.63517,0.09954,-0.38504,0.17612,-0.20649,-0.43612,0.12504,-0.25757,-0.25752,-0.1045,0.73717,0.71175,0.78825,-0.20655,-0.35957,-0.027969,-0.33406,-0.43601,0.15058,0.15065,-0.30853,0.22707,-0.61458,1.8847,0.53302,-0.691,-0.58894,0.17591,0.023133,0.20161,0.12512,-0.18098,-0.46161,-1.1757,-0.43602,0.023029,-0.28307,0.78804,1.0178,0.58417,0.53315,-0.38494,-0.71659,-0.6401,-0.13011,0.48205,-0.30849,-0.8695,0.99223,0.58409,-0.48702,-1.2013,0.22708,0.63521,0.2781,-0.46162,-0.18102,0.048598,-0.053433,0.22714,-0.10465,0.20168,-0.18092,1.2727,0.94108,-0.89508,-0.61464,-1.6601,0.27808,0.89014,0.63513,-0.30849,-0.00251,-0.63998,-0.33401,0.32905,-0.20652,0.3292,0.25261,-0.69105,0.35445,0.71167,-0.33396,1.2216,-0.18103,-0.79309,-0.58906,-0.002381,0.45672,0.30358,-0.20647,-0.81859,-0.10442,0.40544,0.60958,-0.33409,0.099564,-0.053329,0.023157,-0.002546,0.022998,0.27809,-0.51248,-0.41055,0.074013,-1.7622,0.73709,2.6752,0.40567,-0.43598,-1.0226,-0.71656,-0.48706,1.1451,-0.64003,0.40558,0.15051,-0.25748,-0.43602,0.25256,0.17608,-0.18097,1.5021,0.023023,-0.35949,-0.56352,-0.20652,-0.23199,-0.053427,0.074057,0.15056,-0.18097,-0.18098,-0.89519,0.12499,0.6097,1.681,-0.002369,-0.58906,0.25244,-0.89518,-0.56362,0.32897,0.25255,-0.48699,-0.41045,0.55871,0.048512,0.89021,0.48209,-1.7621,0.45651,-0.10455,-0.28301,-0.33399,0.32904,0.9667,0.83922,-0.56353,-1.0735,0.58407,1.298,-0.12998,-0.79302,-0.86955,-0.33402,0.35457,-0.46151,-0.58901,0.78802,0.78811,0.32906,-0.58905,-0.20645,1.3748,-0.002467,-0.283,-1.0991,-0.66553,0.66072,0.074026,0.78807,0.78815,-0.078928,-0.69107,-0.35948,-0.8185,0.278,0.89008,-0.33401,-0.5636,0.048512,-0.079033,-0.10447,-0.181,0.023121,1.1453,0.6606,0.023072,-0.61459,0.78811,-0.64008,-0.64015,-0.58914,0.43115,0.66061,0.17603,-0.538,-0.027925,0.32909,-0.28298,-0.33404,0.40563,-0.20644,-0.002443,0.43105,0.48201,-0.28303,-0.86955,-0.94612,-1.048,-0.027889,1.6041,0.9157,0.43113,-0.33405,-0.48703,-0.51258,0.55866,0.68622,-0.28304,-0.48708,-0.41064,-0.30861,-0.053495,0.15062,0.1506,-0.10442,-0.25743,0.099577,0.81363,0.43111,-0.38499,-0.18092,0.38006,0.81369,-0.51258,-0.86963,-1.1756,0.73713,1.4256,1.2726,-0.46153,-0.92055,-0.76755,-0.283,-0.18102,-0.002436,0.73707,0.76266,0.40562,0.048678,-0.20652,0.20156,0.32905,-0.61463,-1.4561,1.0941,0.60952,-0.71646,0.15062,-0.7421,0.76263,-0.053353,-0.48702,-0.41054,0.55867,0.25259,-0.25756,-0.28308,0.20152,0.048561,-0.25763,0.12507,0.22717,-0.12983,0.12501,1.8084,-0.30844,-0.9206,-1.0482,-0.12996,0.048531,0.074013,-0.20654,0.023084,0.68611,-0.53807,0.58407,0.30363,-0.43593,0.91567,1.5021,-1.4307,-0.99707,-0.30841,-0.15541,-0.74206,0.0485,0.76263,0.35461,0.45653,-0.10453,0.099521,1.5022,0.3291,-0.63998,-0.92054,-0.94601,-0.23202,-0.10459,0.12509,1.1964,1.0688,0.20157,-0.74221,0.25254,0.48211,-0.002467,-1.5074,-0.053506,0.20164,0.8648,-0.92055,0.76268,0.76256,-0.12995,-0.94609,-0.69103,-0.51254,0.20153,-0.027944,0.023059,1.5022,-0.436,0.12505,1.8848,0.60965,-0.76742,-0.76757,-0.18103,0.5075,-0.74212,-0.25754,-0.35954,-0.078947,-0.38503,0.32904,0.22708,0.17611,0.3036,0.12508,-0.74208,0.45658,0.635,-0.12999,-0.30837,-0.43583,1.4768,-0.30858,-1.0737,-0.97174,0.48218,1.0688,0.48219,-0.58915,-1.3289,0.048531,0.45668,-0.10447,-0.46157,0.2271,0.53319,-0.078923,0.22707,-0.002485,-0.078935,0.20158,0.76258,-0.18093,-0.35951,-0.10443,0.099546,-0.10448,-0.053531,0.55858,-1.3541,0.48209,1.6552,-0.46151,-0.46147,-0.12997,0.12507,-0.02798,-0.23199,-0.58902,-0.25748,-0.10444,-0.18098,0.17605,0.38008,0.63513,0.099534,-0.002625,0.53309,-0.385,-0.48705,-0.15546,0.60979,-0.20652,-0.4361,0.40563,0.8393,-0.43612,-0.61471,-0.35959,-0.4361,-0.48712,-0.23193,-0.35948,1.2981,-0.10444,0.94135,0.50768,0.15061,0.86462,-0.35953,-1.2266,-1.0735,0.50754,1.1451,0.63507,-0.053495,-0.56358,-0.92062,-1.0225,0.20158,1.4002,0.20157,-0.5635,-0.30849,-0.15548,0.023072,0.15056,0.12506,-0.078966,0.30358,-0.61464,0.074136,0.48211,0.099473,-0.12996,-0.027864,0.71168,0.074013,-0.35951,-0.053421,-0.69115,-0.74214,-0.76767,-0.43612,-0.18099,0.17609,0.20143,0.50765,0.71178,0.99237,-0.71649,-0.33394,0.94112,0.60948,-0.30854,-0.58905,-0.46152,-0.41055,-0.13001,0.023059,-0.002461,0.7116,1.0686,-0.51248,-0.92051,-0.078959,0.20155,0.073995,0.023041,-0.15545,-0.078959,0.30358,0.074069,-0.23199,0.15056,0.3291,-0.18108,0.022974,0.17606,0.048561,-0.5126,0.023121,0.53329,0.53323,0.09957,-0.13003,-1.1503,-0.79329,0.48203,-0.30844,0.3037,-1.1247,0.91583,1.1453,1.5278,-0.53812,-0.41058,-0.58909,-0.64002,-0.20647,0.30359,0.35467,-0.2065,0.17609,0.15057,0.0485,-0.33412,-0.69105,0.35458,1.3492,0.099528,-0.99705,-1.1501,-0.48699,0.099552,-0.0535,0.15054,0.45656,0.32904,0.074062,-0.002479,-0.23199,0.22704,-0.48708,-0.053476,0.22709,0.99235,0.15062,-0.46157,-0.46163,-0.25762,-0.15548,-1.0483,0.38014,1.1454,-0.002448,-0.51254,-0.078935,0.45658,-1.0481,0.15042,1.2217,-0.56351,0.023035,-0.385,-0.23205,-0.69102,0.83911,0.86466,0.45658,-0.20652,-0.53801,-0.53803,-0.15545,0.048567,-0.002461,-0.027998,1.8847,-0.41054,-0.51249,-0.33398,-0.23197,-0.15556,0.07394,-0.1045,0.60962,0.12509,-0.43602,-0.56353,0.81358,-0.25748,-0.1554,-0.10445,-0.002423,-0.07907,-0.20655,0.35454,0.99232,-0.078935,0.38019,-0.66555,-0.89508,0.25246,0.27799,-0.46156,0.048512,0.20161,-0.66561,-0.078984,0.40566,0.15061,-0.12993,-0.027913,0.074033,0.32913,0.40561,0.60959,-0.079033,-0.12996,-0.10445,-0.89512,-0.053384,0.27811,0.66064,-0.71656,0.78811,0.1505,-0.12988,0.30369,0.15058,-0.10454,-0.71659,-0.027901,-0.0535,0.35457,-0.41053,-0.38503,-0.15548,0.48208,0.78816,0.023005,0.2527,0.4312,-0.078996,-0.30857,-0.027938,0.099595,-0.35958,-0.23202,-0.027962,0.73724,0.048518,0.27795,-0.79312,-0.5379,0.60958,-0.079057,-0.86956,-0.25752,-0.027987,-0.12994,0.50766,0.55864,0.099546,0.12507,-0.002491,0.25255,-0.12989,-0.30841,1.0687,0.68606,-0.43601,-0.10455,0.022961,0.30349,-0.84407,-1.1246,-0.20654,0.074038,0.023041,-0.71665,-0.35954,0.83928,0.99231,0.50765,0.32909,0.66069,-0.56367,-0.74223,-0.81871,0.66075,-0.078917,-0.33404,-0.38507,-0.38507,-0.25752,0.53321,0.25262,-0.027969,-0.30851,-0.15551,0.55872,0.074111,0.2271,0.048531,-0.56362,0.45655,0.89019,0.53315,-0.23202,-0.43607,-0.69111,-0.13003,-0.66556,-0.46148,1.3746,0.43106,-0.053409,-0.10443,0.30361,0.38011,-0.15548,-0.30849,-0.027956,0.023054,0.35462,0.25254,-0.18103,0.099534,0.17607,0.09957,-0.46164,-0.30853,-0.33406,1.0434,0.40569,0.023029,0.25262,-0.51263,-0.4871,-0.66557,0.76258,-0.12999,-0.94601,-0.53802,0.3545,0.58406,1.0177,0.023152,-0.2829,-0.35948,0.30353,0.023029,-0.028005,0.35454,0.12509,-0.18101,-0.74203,-0.13004,0.81364,1.0687,0.20155,-0.181,-0.84409,-0.56353,-0.28307,-0.35956,0.17609,0.4056,0.30366,-0.43609,-0.28296,0.45656,0.35459,0.023023,-0.48712,0.048549,-0.23196,-0.58914,0.48216,0.2016,0.32922,-0.43595,0.02301,-0.10452,0.15054,-0.002491,0.20163,-0.43609,-0.30854,-0.002516,-0.078996,-0.61447,-0.12993,1.7317,0.074033,-0.99718,-0.64012,0.86485,0.6098,0.78813,-0.61458,-1.6346,0.32896,0.91555,0.17607,-0.385,-0.25749,-0.23194,0.27805,-0.20645,-0.58899,-0.48692,1.5787,1.0686,0.35465,-0.28292,-0.5125,-0.2575,-0.33401,-0.334,0.0741,0.099515,-0.30849,-0.28302,0.099613,0.45662,0.66065,0.32911,-0.13002,-0.53814,-0.81866,0.68632,0.38019,-0.12996,-0.86971,-0.56365,-0.13001,-0.027969,0.048555,0.73721,-0.844,0.38016,1.4001,0.3035,-0.76763,-0.89505,-0.43602,-0.053433,0.43113,-0.23198,-0.20647,0.60963,0.99212,0.25266,-0.18089,0.9921,-0.028047,0.20154,-0.71656,-1.0226,-0.30841,0.15063,-0.027944,-0.027925,0.25263,-0.23207,0.15048,-0.0791,-0.053519,0.15065,0.30371,-0.078984,0.2271,1.3237,-0.078972,-0.25762,-0.58904,-0.28299,-0.078972,0.023047,-0.002503,0.43107,0.074038,-0.3851,-0.66565,0.66074,0.91579,1.0942,-0.51255,-0.48708,-0.66565,-0.58911,0.63504,0.81368,-0.25743,-1.5836,-0.33397,2.5477,1.3492,-0.74198,-1.4816,-1.4051,-0.48701,0.35468,0.99223,0.94112,-0.66565,-0.69113,-0.28302,0.22708,0.12505,0.17607,-0.1045,0.099515,-0.053495,0.25257,0.1251,0.6608,-0.28302,0.048543,-0.35956,0.099564,-0.61455,0.27795,0.4822,-0.027987,-0.13004,-0.64014,-0.81866,-0.30851,-0.33401,-0.15535,1.7062,1.2215,-0.053402,-0.3594,-0.385,-0.43601,-1.1245,-0.027962,1.2217,0.074087,-0.69106,-0.23203,-0.15551,-0.10453,-0.10447,-0.028011,0.20154,-0.25747,0.5076,0.17609,-0.053446,0.63499,-0.38505,-0.69112,-0.053421,0.3546,0.048585,-0.41059,0.30369,0.45659,0.48216,0.32909,0.04858,-0.10449,-0.46159,-0.33407,-0.4871,-0.61466,-0.23207,-0.20652,-0.02792,0.5842,0.38006,0.40562,0.32916,0.023145,0.66069,0.17608,-0.078928,-0.76766,-0.86969,0.227,-0.18105,0.58398,-0.3342,-0.41039,-0.38479,0.2528,0.60964,0.81357,-0.46159,-0.18101,-0.15554,0.20153,-0.10449,-0.002443,-0.18094,-0.053446,0.76256,0.27803,-0.51252,-0.69103,-0.18097,0.66051,-0.28303,-0.92066,0.27825,0.86493,1.0179,0.022961,0.76261,-0.33409,-0.84426,-1.0738,-0.4106,0.20156,0.048536,-0.20649,-0.027969,-0.078959,0.15059,0.32913,0.71168,0.023035,0.71166,0.22721,0.1252,-0.76762,-0.028029,0.27806,-1.1757,0.048506,0.58416,0.78811,0.073965,-0.86958,-1.0481,0.099595,0.17601,0.48209,0.074008,-0.05347,-0.23197,0.2271,0.099601,-0.38499,0.20154,0.35459,0.30358,0.27814,-0.2575,-0.41052,-0.30858,-0.28309,0.68617,-0.0535,0.074038,0.43119,0.22713,-0.41059,-0.51263,0.15059,-0.027944,0.3036,0.40563,-0.027944,-0.48707,-0.71656,-0.61459,1.6808,0.048573,-0.56357,-0.078935,0.6607,-0.02798,0.20149,-1.1248,0.40556,0.58428,0.12524,-0.56361,-0.43613,-0.18108,-0.02806,-0.181,1.0686,0.58413,0.30363,-0.64004,-0.51253,0.099546,-0.1555,-0.23204,-0.46154,-0.18104,1.0943,0.71177,-0.027938,-0.6146,-0.12997,0.25262,-0.002491,-0.92073,-0.10447,0.22701,0.63501,-0.15541,-0.46148,0.9413,0.38017,0.45667,-0.053476,-0.51264,-0.33409,-0.38504,-1.252,0.40551,0.8391,0.5841,0.15059,-0.35947,-0.33399,-0.15549,0.7626,0.25257,-0.12995,-0.28297,-0.33399,0.074038,0.023047,-0.15548,-0.43603,0.68604,0.71147,0.022974,0.27817,-0.20636,-0.69102,-0.74206,-0.53805,0.023005,-0.079045,-0.1045,-0.33404,2.446,0.3035,-0.232,-0.027913,-0.43604,0.15064,-0.10447,0.074062,-0.078966,-0.20656,-0.20655,-0.64016,-0.25737,0.86467,0.6351,0.27806,-0.28294,-0.12992,0.074075,-0.25754,0.32906,0.25248,0.023029,-0.742,-0.38498,1.5276,0.68605,-0.89499,-0.79303,0.25263,0.22709,-0.38517,-0.25751,0.2271,1.2728,-0.38494,-0.20654,-0.28307,-0.10451,0.022961,-0.38506,-0.283,0.6861,0.15049,-0.56357,0.25274,0.22715,0.074044,-0.15557,0.60968,0.1251,-0.002461,0.30361,-0.33398,-1.1247,0.37995,-0.30862,1.0432,0.2782,0.32913,-0.30852,-0.15548,-0.078947,-0.15553,-0.20654,0.048555,0.023096,0.048567,0.074038,0.099577,0.2781,-0.002436,-0.027925,0.91565,0.6351,-0.6655,-0.56355,-1.0226,-0.20647,0.63505,0.55853,-0.232,-0.30854,-0.41049,0.55863,0.30358,0.20168,0.15055,-0.69111,-0.10459,-0.25756,-0.027931,0.27815,0.023035,-0.38511,-0.4361,0.20162,0.12506,-0.51257,-0.23204,0.3546,0.58421,0.63517,-0.23208,0.17609,0.12509,0.12509,-0.25749,-0.28301,-0.35964,-0.35963,-0.079014,0.68606,-0.844,0.71162,0.86466,-0.79302,-0.35945,0.71162,0.89014,-0.99709,-0.10446,0.15054,-0.38499,-0.07891,0.40566,0.023072,0.099515,-0.41057,-0.25756,0.43109,0.074111,-0.10449,0.0485,0.22703,0.17608,-1.0481,-0.69101,0.58407,0.99205,0.78835,0.71182,-0.46156,-0.46157,-0.94623,-0.86965,-0.51265,0.68617,0.83926,0.048494,-0.25757,0.25247,0.12501,-0.41049,-0.078928,0.15065,-0.28296,-0.43603,0.66062,0.73707,0.48214,0.20169,-1.0481,-1.4306,1.1196,0.86462,-0.334,0.023005,-1.1246,-0.38513,0.53303,-0.15551,-0.18094,0.30363,-0.18094,-0.15544,0.20156,-0.25753,-0.46147,1.1706,1.0942,-0.1555,-0.28303,-0.20649,-0.64,-0.538,0.22704,-0.079026,0.048604,0.3036,0.0485,-0.66569,0.20158,-0.18087,0.27808,0.20149,-0.12998,0.32917,0.099577,0.2526,-0.15552,-0.20649,-0.33405,-0.15556,-0.48714,0.40567,0.1761,0.68622,-0.13004,-0.46159,-0.28306,0.023017,0.86485,0.7628,-0.79309,-0.56374,1.3237,0.4058,0.048678,-1.1502,-0.74215,-0.028036,-0.48709,-0.48702,1.3237,0.3801,-0.30841,-0.027895,-0.053482,0.35456,0.074008,1.0686,0.73715,-0.79295,-0.61448,0.329,-0.48703,-0.58902,-0.43608,0.176,-0.00243,0.1761,-0.002479,0.074051,-0.12999,-0.23196,0.9666,0.4311,-0.9462,0.074087,-0.05347,0.099608,-0.20645,-0.79319,0.43117,0.81375,0.023023,-0.48712,-0.027925,-0.002503,-0.027974,0.30363,0.63514,-0.56361,-0.81864,-0.12999,0.22707,0.40566,-0.20648,-0.38499,0.99217,0.22704,-0.10444,-1.1501,0.58408,0.20163,-0.28294,0.45659,0.17603,-0.43604,-0.48705,-0.56354,-0.71653,0.94114,1.1707,0.17607,-0.002467,-0.33402,-0.41052,-0.33404,-0.53803,0.17606,0.09957,0.27806,0.40562,0.48218,0.099552,-0.20652,-0.38508,-0.13001,0.09957,0.20159,0.1506,-0.10446,-0.66561,-0.25757,0.2526,1.1454,0.38022,0.35446,-1.2524,-0.35951,-0.027931,-0.51253,-0.002503,-0.48702,0.30366,1.2727,-0.58904,-0.46156,0.68606,1.2473,-0.58894,-0.86958,-0.35957,-0.079014,0.048585,-0.20643,0.048536,-0.027962,0.12496,1.4256,0.58409,-0.58897,-0.94597,0.12505,0.227,0.099583,-0.41049,-0.64005,-0.38506,0.7881,-0.33393,-0.15551,0.60968,-0.20652,-0.51258,0.27809,0.83923,-0.079039,0.15052,0.17605,-0.181,-0.48703,-0.28297,-0.25751,-0.20652,0.4056,0.22707,0.45666,0.15056,-0.43609,-0.25755,0.55859,-0.027956,-0.46158,-0.385,0.04861,0.63504,0.55851,-0.15554,0.023152,-0.23195,-0.4615,-0.61455,0.94119,-0.18098,-0.079033,-0.41056,0.278,0.35453,0.2015,0.20148,-0.053304,0.45675,-0.43604,0.074062,-0.25749,-0.56365,-0.25757,0.12503,0.40561,-0.38506,-0.3085,0.91557,0.22704,-0.81861,0.048543,0.60971,1.0689,-0.12995,-0.64008,-0.25756,-0.18103,0.45672,-0.20646,0.022992,-0.33404,0.02298,-0.18103,0.12507,0.22709,-0.41055,-0.41054,0.89024,0.66068,-0.41059,-0.43602,-0.38493,-0.35959,-0.41054,0.50765,0.73714,0.3545,-0.94612,-0.053421,1.0942,-0.48701,-0.64004,-0.56352,1.0687,0.66063,-0.078959,0.40557,-0.027913,-0.28292,-0.10445,-0.15545,-0.20654,-0.30852,-0.078984,0.3545,-0.23205,0.022998,-0.053519,0.27811,0.048531,-0.18106
-0.41058,0.074062,0.15059,-0.15549,-0.35955,-0.28305,0.30364,0.40568,-0.02798,-0.13002,0.023029,-0.079008,-0.02798,0.099546,-0.027969,0.074051,0.22711,0.099564,0.12505,-0.028005,-0.10451,-0.027998,-0.002479,-0.078984,-0.15547,-0.10447,0.099577,-0.053458,-0.002461,0.048536,-0.002479,-0.10451,-0.13001,0.074062,0.27812,-0.15549,0.074062,-0.28306,0.12508,0.2271,-0.15552,-0.25757,-0.13,-0.002454,-0.002436,0.17611,-0.05347,-0.10448,0.074051,0.15057,0.074051,-0.079014,-0.10452,-0.15553,-0.18098,0.20164,0.55873,0.48219,-0.053495,0.02301,-0.078996,-0.25754,-0.4106,-0.027969,0.45669,0.22714,-0.12996,0.099601,-0.078977,-0.30856,-0.0535,-0.23205,0.30362,0.53321,0.22712,-0.10449,0.099595,0.12509,-0.053482,-0.25757,0.38014,0.3291,0.048536,-0.18102,-0.23203,0.32915,0.17611,0.023059,-0.25753,-0.13003,-0.002497,0.074051,0.15059,0.2781,0.12507,0.12507,-0.18099,-0.18101,-0.027993,0.58416,-0.20652,-0.10452,0.099521,-0.002491,-0.58914,-0.078984,0.25262,0.60974,0.074069,0.048536,-0.3596,-0.46161,-0.20652,0.22709,-0.25756,-0.28305,0.50768,0.27813,-0.053482,-0.2065,-0.58911,0.30363,0.15054,-0.38511,0.09954,0.43116,0.83933,0.27812,-0.28305,-0.56363,-0.41058,0.048536,0.048549,0.074062,-0.078996,-0.30856,0.099601,0.17608,0.17605,-0.078972,-0.15548,0.048549,-0.30855,0.27809,0.074057,0.25262,-0.027931,0.04858,-0.13,-0.078996,-0.15552,-0.1045,-0.002467,0.023047,-0.053495,0.074044,-0.027974,0.023054,-0.002461,0.074051,-0.053513,0.048494,-0.53813,-0.05347,0.074081,0.27811,0.17612,-0.1555,-0.027987,-0.027962,0.32915,-0.002472,-0.46159,-0.41058,0.099564,-0.027938,-0.15545,0.25267,0.02301,0.048506,-0.79321,0.94128,0.6352,0.12505,-0.25753,-0.05347,-0.02795,-0.078959,-0.25756,-0.64019,0.5332,0.81379,-0.15549,-0.38508,-0.13,0.1506,0.048561,-0.078972,0.048536,0.30359,0.20159,-0.002491,-0.07899,-0.23205,0.023035,0.27811,-0.078953,-0.30851,0.1761,-0.4871,-0.15551,0.55866,0.048543,0.50769,0.55873,0.45667,-0.23204,-0.64018,-0.23205,-0.078996,-0.28307,-0.3086,-0.51263,0.1251,0.32915,1.1964,0.27815,-0.10448,-0.53811,0.32907,0.17603,-0.30852,-0.61458,0.074038,-0.18101,-0.13002,-0.48713,0.71178,0.20161,-0.10452,-0.18105,0.099552,0.17604,-0.25757,-0.23206,0.53323,0.12514,-0.12998,-0.10453,-0.35959,-0.027993,-0.41063,0.53323,-0.51258,-0.20649,-0.027969,0.22711,-0.35957,-0.23217,0.40564,-0.25756,-0.002467,1.1454,0.43119,-0.38499,-0.25748,0.17596,-0.00243,0.68645,0.38016,-0.002565,-1.0484,-0.79319,-0.58916,0.73723,-0.23209,0.40573,0.7117,0.048487,-1.1503,0.68625,1.4258,0.074075,-0.58905,-0.79307,-0.56364,-0.079021,0.023084,0.20152,1.0178,0.38013,0.12493,1.3237,-0.66556,-0.89516,-0.79309,-0.48701,-0.58903,-0.28295,-0.35952,-0.28311,1.8591,0.58403,-1.4562,0.71174,2.9307,1.0689,-0.97153,-1.2776,-0.94614,-0.4871,0.35453,-0.23217,-0.12999,0.15058,0.17619,0.15057,-0.92083,-1.1249,2.4206,1.426,-0.94607,-1.4052,-0.66553,0.17597,-0.4617,-0.69116,1.2981,1.0431,0.15058,-1.0481,0.6606,0.3037,-1.0735,0.3546,0.86457,0.43104,-0.43596,-1.048,-1.3796,0.073971,1.5277,0.22699,-0.51249,-0.38515,0.2526,-0.027907,-0.56355,0.074008,-0.33399,0.86466,0.76283,-0.89513,1.5529,1.5021,-1.0991,-1.3029,-1.813,1.1197,1.3235,-0.38503,0.048708,0.35467,0.12491,-1.2267,-1.8388,0.099754,0.99235,1.4,1.2215,1.3748,0.48244,-1.6601,-1.1757,-1.0482,-0.002467,0.63509,0.22705,-0.10451,-0.002485,-0.028018,0.3036,-0.18087,1.3238,1.1962,-0.15549,-1.1502,-0.46151,0.12508,-0.56377,0.27819,0.25267,-0.46143,-0.43587,1.0432,0.63485,-0.89498,-0.38505,0.76263,0.78791,-0.76767,-1.9663,-0.66561,0.30356,0.15066,0.6352,0.074149,-0.002394,-0.28312,0.048518,0.73726,0.89029,1.2982,0.35444,-0.30863,-1.2011,-0.66556,-0.99716,0.66057,2.5735,-0.51248,-2.0684,-0.79309,1.528,0.15054,-0.92061,-0.41057,-0.74213,-0.38515,0.9157,0.55863,-0.43597,0.30376,1.6807,1.3747,-1.0991,-2.9098,-0.94628,2.0632,2.6246,-0.002356,-0.94608,-1.7877,-1.7113,-0.30861,0.55855,0.99207,0.83909,-0.053446,0.12512,0.91573,1.5278,0.27805,-1.8642,-0.99709,-0.99712,-1.2522,0.58427,0.89031,0.89025,-0.56368,0.38008,-0.20661,0.02295,1.1454,0.66079,0.20159,-0.58916,-1.1503,-0.078996,0.35457,-0.99712,0.96671,1.8848,1.1964,-2.2723,-0.69108,0.55853,-0.69101,-0.00251,-0.25763,0.83927,0.81387,-0.20647,-0.81857,-0.33384,1.3491,0.43098,-1.6347,0.83899,0.12511,1.5277,0.6862,0.68609,-0.5125,-1.4561,-0.56345,-0.078953,-0.28298,0.099583,0.6352,0.58414,-0.48715,-0.71673,-0.84422,-0.18103,0.78824,0.86483,-0.05347,-0.15553,0.45662,0.68603,-1.3542,-0.33404,0.20138,-0.20646,0.30385,-0.053329,-1.0479,0.3035,1.1704,1.2472,-0.41047,0.58408,0.3291,-1.4307,0.12511,-0.5635,-0.84392,-0.63996,-0.053544,-0.38513,0.22697,0.86459,0.35453,-0.53813,1.8083,1.2219,1.1455,-0.28294,-1.2522,-0.89513,-0.76753,-0.078874,-0.84411,-1.2777,0.71143,1.5277,1.5024,-0.69104,-0.46142,0.96689,-0.25751,-1.0227,-0.15557,-0.2323,-0.51267,0.22712,1.6811,-0.48705,-0.7931,0.55858,0.43083,-0.89501,-0.7164,1.5788,2.803,-0.25742,-1.5071,-1.2521,1.298,0.60946,-1.2521,0.32904,0.48208,-0.51242,-0.56344,-0.84398,-0.385,0.58398,0.38007,0.25264,0.7372,0.83918,-0.10454,-0.89521,-0.23191,-0.002528,-0.94643,0.63519,1.1709,2.2932,-0.89504,-1.3543,-0.56358,-1.3542,-2.7569,1.9356,0.60958,-0.12993,-0.078959,1.5789,0.27832,0.43106,0.048536,0.20148,-0.89514,-0.25743,-0.6655,-0.30843,0.30355,-1.0736,0.2016,1.5786,1.2471,1.5276,-0.20648,-1.9407,-1.6092,-0.79308,-0.1301,-0.41046,-0.48699,0.81374,1.1709,0.83931,-0.35951,0.40549,1.0687,0.15059,-1.4053,0.35453,0.048525,1.9361,-0.46154,-0.92064,-1.3542,-0.15552,-0.053531,0.074038,-1.0226,-0.079118,1.3492,-1.0225,1.0685,2.0122,-0.20628,-0.5123,-0.46156,-0.002436,1.1962,-0.43599,-0.10449,-0.35964,-0.61457,-0.58903,-0.71651,1.2216,0.30355,-0.69099,0.91545,1.3745,0.2782,-0.4103,-0.30827,-0.33402,-0.487,-0.20653,-0.25766,0.09957,0.40569,-0.51261,0.227,0.53323,-0.12996,0.048512,0.4056,-1.3031,0.20156,-0.079106,-0.66556,-0.30853,-1.4817,1.4768,1.8849,-0.027901,0.099485,-0.58913,-0.28297,-1.6856,0.94107,1.2981,1.043,-0.74192,-1.7875,-1.405,0.53315,1.3492,1.2215,-0.66557,-1.4306,-0.43606,0.78813,1.1453,0.48209,-0.6911,0.17622,1.2729,-0.61451,-2.0173,-0.079142,1.6551,0.048506,-0.15546,-0.81857,-0.53798,-0.99706,0.58397,0.48214,-0.053427,0.17612,0.40568,-0.2575,0.27822,0.099479,-0.64018,-0.48719,0.32907,1.7065,1.3236,-0.30858,-1.5583,-1.4817,-0.61448,-0.15553,-0.92061,2.6246,1.8595,2.2927,-0.97175,-0.38485,-1.3798,-1.2778,-1.8132,-0.53807,1.094,2.2164,0.15073,-0.86953,-0.94612,-0.35958,-0.002405,0.048629,0.023035,0.91557,1.0688,-0.99707,-0.20662,1.4768,-1.354,-0.053458,0.022883,-0.079051,0.073989,-0.56365,-0.71651,0.38031,0.22726,-0.589,0.17601,0.96644,0.27794,-0.027974,-0.18094,-0.41049,-0.053421,-0.63995,-0.1555,0.40538,0.58417,1.1454,1.3492,-0.99714,-1.5325,-0.64018,2.1651,-0.89518,-0.53802,0.45661,0.50752,-1.1246,-0.385,-0.28297,-0.28286,0.81366,1.2727,-0.53803,0.25266,0.20162,0.43099,-0.38522,-0.89518,0.76269,0.78845,0.099534,1.0942,0.25254,-1.5583,-1.4308,-0.79303,0.53311,0.12516,0.71162,0.40557,-1.3286,-0.28291,0.25252,1.3746,0.099497,0.048585,-0.76733,0.17609,-0.79315,-0.64007,-0.5636,-0.28294,1.0432,0.58403,-0.46148,-0.028109,2.0379,0.2015,-0.079148,-0.4615,-0.41044,-0.64001,-0.64005,-0.9206,0.12501,0.32898,-0.053415,0.68622,-0.027987,0.12504,0.023096,-0.05336,-0.81865,-0.79314,0.96684,0.2525,0.35453,-0.38505,0.27795,0.022925,-1.0736,0.50766,-0.10435,0.099601,-0.3595,2.6752,1.3492,-1.507,-1.1246,-1.3285,-0.232,0.1507,1.0684,-0.1556,-0.86962,-0.76747,0.32907,-0.10447,0.86462,1.7573,-0.053446,-0.48695,-0.94576,0.15045,1.4767,-0.05358,-1.0481,-1.3543,-0.79305,1.1708,0.68613,-0.38503,-0.15538,-0.74206,0.32899,0.81364,-0.38508,0.22722,-0.053495,0.15059,0.04861,0.17607,0.3291,-0.078941,-0.35964,-0.76755,-0.86952,0.76264,2.7263,1.4002,-0.58893,-1.1755,-1.66,-0.89501,0.6861,0.2015,-0.35957,0.22704,0.17603,0.20157,0.50761,0.60966,-0.28315,0.15054,-0.12993,0.66078,0.73691,-0.053519,-1.3796,-1.7112,0.6354,-0.51244,0.50765,0.30375,0.40553,0.81345,-0.61476,-0.38503,-0.84411,0.20155,-0.25751,-0.33391,0.074087,-0.56369,0.63523,1.2728,2.1909,-0.283,-1.3032,-0.86955,0.68616,0.32917,-1.0482,-0.86967,-0.28298,-0.1808,0.25247,0.86449,2.2162,0.22696,-1.4051,-1.6855,-0.3339,0.3291,-0.30854,-0.20646,0.27811,1.3493,-0.053586,1.1708,0.58422,0.48219,-0.76771,-0.74216,-0.58911,-1.3799,-0.079057,0.81371,1.9872,0.63534,-1.8132,-0.25763,0.73709,-0.48703,-0.028029,0.43099,-0.41054,-0.10436,0.55881,-0.64004,-0.97189,0.55862,1.2728,0.55867,-0.9461,-0.28305,0.50748,0.17603,-0.63999,-0.2574,0.5076,0.40547,-0.71657,-0.64001,-0.64003,1.0431,0.68621,-0.002479,-0.97155,0.7372,0.89008,-0.20649,-0.538,-0.002516,0.53303,-0.38503,-0.10435,0.66075,0.63506,-1.0483,-0.71653,-0.69108,0.32926,0.60979,0.048415,-0.30863,-0.30846,0.43097,0.66049,0.25248,-0.89516,0.099668,-0.46129,1.1962,0.91557,-0.15554,-0.33391,-0.38488,-0.15551,-0.053562,-0.23204,-0.38497,-0.41057,-0.35959,-0.28303,0.58411,0.91562,0.86462,-0.7931,-0.56362,-0.46164,0.94109,0.074111,-1.0991,-0.05366,0.83914,0.43129,-0.23198,0.048604,-1.0737,0.63515,0.9412,0.50763,-0.64005,-0.74218,-1.0225,-0.002423,2.65,-0.30847,-0.35962,-0.028085,-0.12994,-1.5836,-0.81853,0.30349,-0.385,0.66055,0.073984,-0.15542,-0.28303,0.6862,1.0178,0.35456,0.91567,-0.69107,-1.0736,0.048518,1.3747,1.1196,-1.0481,-0.56348,-0.027871,-0.078843,-0.71649,-0.51265,0.278,-0.51249,-0.33407,1.4513,0.43121,-0.74216,0.099424,0.20153,0.6099,-0.94617,0.43109,0.35446,-0.71667,-0.86956,1.7319,0.15065,0.30358,-0.74218,-1.2267,0.20159,0.27811,0.38013,0.25242,-1.0992,0.40575,1.2983,-0.66556,-1.0226,-0.20651,0.32899,-0.079008,0.17621,1.5787,0.40549,-0.71662,0.023127,0.38017,-0.33388,-0.66553,-0.33403,-0.64006,-0.28302,0.073928,1.2471,0.27805,-0.94607,-0.12979,-0.078812,-0.64007,-0.20658,-0.05366,0.35456,0.86484,0.78827,-0.69108,-0.10455,-0.41066,-1.4052,0.35453,1.885,0.48203,-0.9972,-0.86973,0.48231,0.4822,-0.56353,-0.283,-0.38494,-0.94609,-0.002534,0.20164,1.6552,1.706,-0.079088,-1.3285,-1.2009,-0.79304,1.5276,0.40564,0.20156,0.8391,-0.92058,-0.12998,0.15057,-1.3796,1.1452,1.0176,0.15056,-0.76752,0.2271,0.55855,-0.64012,-0.4106,-0.58909,0.76283,0.66072,0.55867,-0.64019,-0.33409,-0.86957,0.91576,1.6553,-0.15553,-0.81868,-0.5636,-0.6146,-0.33404,-0.028066,0.023121,1.2474,0.68608,0.15041,-0.48712,-0.079033,-0.078886,-0.18085,0.023152,-0.027907,-2.5782,2.0121,3.3891,0.25247,-1.6856,-1.7622,-0.053519,0.125,0.78813,-0.28289,-0.28287,0.12504,0.22703,0.66062,-0.3595,0.45658,0.12505,-0.64011,0.074118,-0.48703,0.074051,-0.027993,1.6042,0.89006,-0.538,-2.1449,0.89031,0.73718,-0.28286,-1.0226,-0.92064,-1.0991,0.78813,0.43096,1.1962,-0.38506,-0.38506,-0.76754,0.38026,2.2419,1.3494,-1.1752,-0.7677,2.3434,0.15044,-1.5581,-1.7111,-0.41041,-0.30846,0.17617,2.4458,0.76253,-0.86957,-1.0481,-1.3541,-0.10453,-0.28305,0.94112,0.66062,1.1962,-0.53798,-0.33396,1.2218,0.12509,-1.1758,-0.25747,0.22705,-1.2522,0.53317,-0.07907,0.94124,0.81362,-0.79309,-1.4307,-0.33394,-0.99695,0.17604,3.2619,0.78804,-1.9662,-1.8389,1.2985,0.099724,0.074008,-0.33414,0.60957,0.12499,0.048604,0.099515,-0.56352,-1.4308,0.25254,0.96683,1.2472,0.48201,-0.30847,-1.4816,-0.20647,0.30362,0.074051,0.38006,0.63517,-0.53812,0.099466,0.81381,-0.92058,-1.2522,-0.053439,1.0177,-0.28302,0.048543,-1.1503,0.89025,2.3441,-0.027998,-0.89513,0.074062,-0.38493,0.30358,-0.41069,0.35445,0.40553,-0.13003,-0.97157,-0.41045,-0.10429,2.4205,0.45653,-0.46159,-0.12985,-1.2011,-1.0482,0.40558,0.63514,0.3545,-0.48719,0.73728,-1.0736,1.451,0.66059,-1.507,0.22702,1.0941,-0.078843,-0.38485,-0.8696,0.6861,0.48209,-0.079045,-0.51255,-0.58896,-2.0937,1.0432,2.4203,1.5277,-0.84412,-0.6911,-1.3286,-0.23188,0.60952,1.2472,-0.23192,-0.23186,0.022974,0.022931,-1.3031,-0.18092,0.50762,0.35456,-0.41057,-0.053495,-0.35959,-0.28312,0.32913,0.94137,0.35468,-0.002521,-0.46154,-0.078879,0.5332,-0.00251,-2.3999,1.5022,1.7828,-0.30852,0.50754,-0.94604,-1.1756,-0.18105,-0.33398,-0.81853,0.66067,0.45654,-0.10449,-1.0225,2.0121,2.0376,-0.18103,-1.7366,-0.38494,1.3491,0.55853,-0.76753,-0.61455,-0.86956,-0.92053,-0.92068,0.30368,0.60974,0.40568,0.38006,0.40558,0.12504,-0.3852,0.073959,-0.13009,-0.078879,-0.078947,-0.51262,-0.23193,0.38025,0.53323,-0.13004,-0.53811,0.048469,-0.46169,0.1251,1.7573,0.45671,-0.53797,-1.3541,-1.5326,1.0431,1.1706,-0.66558,0.4566,0.63517,-0.86953,-0.35957,0.63503,0.074087,-0.46144,-1.354,0.60944,1.4511,-0.15545,-0.20642,-0.1554,-1.2011,0.60959,0.76268,0.76263,0.30363,-0.89514,-0.76771,0.17609,0.63515,0.78821,-0.99713,-0.84405,0.40553,0.78821,-0.79294,1.4003,0.073922,1.7063,-1.2269,-1.0479,-0.28291,-0.81862,-0.3851,0.38016,0.96673,0.15064,-0.69116,-0.3851,1.5278,0.20155,0.17595,0.6606,0.25264,-0.35942,-0.74189,-1.1501,-1.4817,0.63511,2.1908,-0.38503,-0.61452,0.27813,0.45656,-0.10455,-0.25753,-1.0481,-0.51236,0.35469,1.5787,0.15044,-0.81862,-0.71655,-0.1811,1.0176,-0.3085,0.099699,0.099681,0.3801,-0.64017,-0.56359,0.45659,-0.69112,-0.23207,0.30344,2.089,0.20156,-0.76757,-0.99713,-0.38489,-0.30851,-1.6602,1.8081,4.1037,-0.38464,-0.89504,-1.0738,-0.8186,-1.2267,0.30363,1.8082,0.15048,-1.1757,-0.48703,-0.35946,0.91566,0.25254,0.37995,0.63514,-0.58903,-0.38489,0.023133,-0.51246,-0.002412,0.91568,-0.18103,-0.58907,0.91559,0.66063,0.12518,0.17609,-1.5327,-2.3233,0.73705,0.66068,0.4821,-0.18097,-0.35951,-0.18106,-0.002405,-0.81866,1.2728,0.3801,0.023121,0.81371,0.63511,-0.58903,-0.66561,-0.33412,-1.0226,-0.20657,2.0377,1.5277,-0.51239,-1.7622,0.73726,-1.3795,-1.0225,0.15049,0.22704,-0.10464,0.12496,0.329,0.15048,0.91576,0.50771,-0.25754,-0.002503,-0.25749,0.074038,0.099662,-0.25745,-0.99706,-0.1301,0.91577,0.6609,-1.4306,0.78788,-0.58929,-1.3287,-0.027822,-0.18086,0.86466,0.43101,1.4512,-0.00251,-0.71648,-0.12994,0.40552,-0.053519,-0.63996,-0.35946,0.023163,-0.89507,0.73701,1.7062,-0.20643,-0.86949,1.2981,0.32897,-1.2267,-1.0225,0.91601,1.0944,-0.4616,-1.1248,-1.7112,0.32896,1.1961,0.40557,0.09957,0.35461,-0.002381,-0.18091,-0.92074,0.40556,0.22708,1.375,0.25258,-0.43609,-0.25755,-0.89513,-0.23205,-0.13011,0.81366,0.32912,-0.3341,-0.28295,-0.078917,-1.4306,1.7062,1.7572,-1.4815,-0.81856,0.7116,0.20155,-0.30843,0.3035,0.35447,-0.28304,-0.35944,-0.74198,0.4055,-0.74204,-0.3595,0.53304,-0.028085,0.25256,0.22714,1.2218,0.58414,-0.23192,-0.76768,-0.20662,-0.43597,-0.20646,-0.027974,-0.028042,0.86472,-0.078959,-0.12994,-0.66556,-0.79319,0.50759,0.76275,1.8342,-0.13001,-0.5127,-0.35971,-1.9662,-0.38503,1.6807,0.48211,-0.94609,0.32913,0.32917,-0.53793,0.50761,1.3492,0.15057,-0.99704,-0.53803,0.048506,-1.4306,-0.20649,1.6296,1.3491,-0.35952,-0.92054,0.12505,0.22705,-0.79301,0.30361,0.25257,-0.84417,0.27815,0.35461,1.1709,1.0433,-0.99726,-0.48706,-0.33399,-0.5126,-0.41064,-0.58917,-0.74211,-0.283,1.8338,0.6863,0.40579,-0.4871,-0.25747,-0.51249,0.73726,0.94123,-0.69105,-0.94614,-0.3086,0.37997,-0.13001,0.66053,0.71166,-0.10444,0.40563,-0.66539,0.43114,-0.10447,0.15054,1.1197,-0.94604,-0.76752,-0.58905,0.073959,0.63504,-0.283,-0.46149,0.38013,0.53301,1.2982,-0.078879,-0.18083,-1.1246,-0.94612,0.60962,-0.41055,0.78799,1.7571,-0.10445,-1.5837,0.17639,1.2982,1.1196,-0.74204,-1.0736,-1.2522,-0.58905,-0.15551,-0.18105,0.76261,1.2218,0.58413,0.5332,0.12523,-0.18104,-1.4818,0.66065,0.584,-0.078837,-0.20652,-0.28306,-1.9152,0.25252,1.8847,0.81365,-0.76754,-0.89505,-0.027938,0.3547,0.76265,-0.48696,-0.13002,0.73702,-0.38503,-0.078892,-0.25743,-0.20647,0.55856,0.30353,-0.58906,0.073953,0.30363,0.89027,-0.66556,-0.53796,-0.5636,0.73715,-0.2577,0.60981,0.5332,0.048525,-0.99721,-1.0227,-0.002528,0.58422,1.0686,0.83917,-0.61453,-0.51252,-0.28295,-0.64004,0.30367,0.73709,-0.15545,0.023023,0.37996,-0.20638,0.176,-0.18099,0.048647,-0.33399,-1.2777,0.15052,1.1961,1.4003,0.68617,-1.1247,-1.2012,0.32899,1.0688,-0.20646,-1.0737,-0.23193,0.2271,0.25256,0.48221,-0.92071,-0.07913,1.6808,-0.078972,-1.3287,-0.079008,1.3746,0.43105,0.15066,0.40559,0.20156,-0.69103,-0.99708,-0.385,0.30351,0.48206,0.50772,0.25273,-0.23204,0.12503,0.1251,-0.58918,-0.51268,-0.43609,0.99215,0.9411,-0.89503,-1.0481,0.81384,0.3292,-0.23207,-0.79321,0.099675,0.48216,0.5839,0.58414,-1.3797,0.20154,-0.10447,-0.43602,0.96676,0.63507,0.76266,-1.3796,-0.81852,0.45652,1.1707,-0.43603,-0.38498,-1.2011,-0.078984,-0.20646,0.25251,2.5987,0.32907,-1.2265,0.22702,-0.6911,0.074216,-0.078923,-0.18084,-0.51257,0.71157,0.58409,-0.53801,-0.25752,-0.13002,0.023023,-0.1045,-0.053495,-0.30855,-0.92072,0.4821,0.50777,2.2932,1.3238,-0.10464,-0.92059,-0.89508,-0.56353,-1.1503,-0.28306,-0.9718,-0.002497,0.38016,1.0434,-0.66556,0.37982,2.1144,0.7118,-0.38499,-1.6857,-0.20638,0.94118,0.86453,-1.3542,-0.7676,0.15047,-1.0736,0.50757,2.3692,-0.12994,-0.43584,-0.63997,-0.25744,-0.71656,0.48203,0.22704,-0.053476,-0.25755,0.71161,0.3801,0.099515,-0.41055,-0.25751,-0.027944,-1.0737,1.2983,0.22718,0.53328,-0.35951,-0.35956,-0.33403,0.38008,0.71181,-0.20656,-1.2522,-0.56364,1.5786,1.1196,-0.94611,-0.25745,-1.099,0.048598,1.0432,0.50757,-0.25745,-0.28302,0.68605,-0.18095,-0.15543,-0.84406,0.58393,0.8647,0.22709,0.32915,-0.30854,-0.76759,-0.43603,-0.56353,0.55854,0.71147,-0.35946,-0.078843,0.81366,-0.002454,-0.35953,-0.12994,-0.28301,-0.15551,-0.15553,0.30358,0.38016,0.55866,1.0432,-0.41066,-1.0481,-1.4052,0.43114,0.96677,0.63522,0.25261,-0.71659,-0.99716,-0.38501,0.58411,1.4002,-0.027901,-0.23198,-0.97165,-0.35943,0.20158,2.1655,-1.0481,-0.48714,0.099412,0.38001,-0.41055,0.048598,-0.25759,0.83912,0.71171,-0.41047,-0.35943,-0.64003,0.17594,0.22695,-0.002363,0.02317,-0.25746,0.38004,-0.74206,-0.64023,0.12504,2.6498,1.8849,-0.97146,-1.5072,-0.43604,-0.51254,0.17609,-0.23196,-0.18106,0.35454,-0.53814,0.45674,1.1708,-0.3849,0.30356,-0.053604,-0.43613,-0.15549,-0.86963,-0.20653,-0.028036,-0.078959,-0.18086,-0.30846,1.5532,0.15056,-0.53801,-0.12999,0.07413,0.58408,-1.15,0.6605,1.1962,-0.25747,-0.89509,-0.94612,-0.92056,0.35456,0.63511,-0.35948,0.3544,1.4001,0.86485,1.9362,-0.23201,-1.0737,-0.84411,-1.2267,0.30345,-0.053635,-0.35948,1.0944,0.66074,0.53314,-0.97173,0.15067,0.099601,0.99232,-0.25754,-0.56361,-0.3851,-0.92072,-0.027944,0.73719,-0.079081,-0.43608,0.53322,1.732,0.099528,-0.71666,-0.94606,0.71159,1.0431,-0.46155,-0.002479,-0.1044,-0.97157,-1.1246,0.58427,0.96661,0.099466,-0.53804,-0.25754,0.048567,0.43118,0.22707,0.35461,0.22708,-0.002558,-0.46159,0.099485,0.22708,0.35468,0.35459,-0.58905,-0.81859,-0.97167,0.53325,0.3547,0.40541,0.45654,-0.35945,0.53322,-0.18101,-1.0482,-1.0228,0.32904,0.20166,0.12505,-0.053598,-0.15553,-0.23201,0.81378,-0.20637,1.0433,0.81358,-0.56355,-0.61456,0.60961,0.35454,-0.92048,-0.20646,0.73718,-1.252,0.68591,2.1651,-0.56348,-1.5071,-1.1501,-0.48697,0.50759,0.45657,0.073965,0.023029,0.15054,0.45664,0.27807,-0.2321,0.43103,0.023005,0.68621,-0.38498,-1.0736,-0.84397,0.71152,0.22701,-0.33394,-0.48703,-0.002491,0.32907,0.20159,0.55875,0.48209,-0.71655,-0.41065,0.5075,-0.028011,-0.58899,-0.12994,1.1452,0.4566,-0.027901,-0.12993,-1.1501,-0.07891,-0.002307,0.99224,-0.25747,0.68615,-0.1557,-0.51254,0.023041,0.074044,-0.61458,-0.71665,-0.48706,-0.053506,0.22703,-0.15542,0.3291,0.81363,0.35457,-0.20644,0.0741,-0.43597,0.40561,-0.51262,-0.027956,0.25257,0.86469,-0.71657,-0.20656,-0.86966,-0.18101,-0.18101,-0.51248,0.43132,2.1143,0.9666,-1.0736,-0.74211,-0.4106,-0.23199,-0.43604,1.1963,0.3291,-0.12998,0.023127,0.30368,-0.89513,-0.28304,0.94117,0.38001,-0.28306,-0.10443,0.38025,0.074081,-0.078972,-1.0226,0.023041,1.7318,-0.66556,-1.0227,0.074081,-0.20647,-0.43606,0.60959,0.27795,0.60958,0.1506,-0.94602,-0.43603,0.63504,-0.28294,-0.58903,-0.30848,0.023072,-0.20656,0.30353,0.22707,-0.078996,-0.30852,0.48217,1.4003,-1.0226,-0.30853,-0.86974,-0.23208,-0.10447,0.83925,0.20157,-0.6656,-0.18096,0.12512,0.074075,-0.028005,-0.43609,-0.28297,0.40561,0.25255,0.32905,-0.15546,0.89009,-0.053476,-0.43597,-1.252,0.63514,1.6806,0.022961,-0.48696,-0.66544,-0.33399,-0.84406,-0.12992,0.1251,0.023041,1.6299,0.55855,-0.28308,-0.10454,0.81357,-0.07899,-0.94616,-0.10442,-0.33391,-0.23197,0.12501,0.71177,0.20163,-0.71668,-0.30856,-0.38513,1.9107,0.17609,0.073965,-1.4309,-0.76767,-0.33409,0.53303,0.40558,-0.5125,-0.027956,-1.0226,0.30369,0.94123,0.73709,-0.079057,0.635,-0.46145,0.27815,0.22705,-0.35954,-0.89509,-1.3286,0.3036,0.22697,-0.8952,0.53314,0.99217,0.048506,-0.28301,-0.002497,-0.13001,0.17606,0.074136,0.074057,-0.053495,0.15057,0.17614,0.50763,-0.53807,0.12509,-0.35959,-0.97144,0.43118,1.4511,-0.13006,0.35462,-0.64015,-0.71651,0.32904,0.22707,-0.35954,-0.38497,0.89028,0.55866,0.12502,-0.66569,-0.66569,-0.078972,1.0431,1.0688,0.048549,-0.2066,-0.53798,0.12505,0.048555,0.02295,-0.002485,-0.81857,-0.92048,1.2981,1.6043,-0.43604,-0.46153,-0.43601,0.099601,0.22705,-0.86963,0.25256,1.1452,0.96663,-0.48708,-0.51247,-0.84405,-0.64001,-0.053446,-0.66555,0.35458,0.32912,-0.13,0.58408,-0.10449,-0.92067,0.48219,0.5077,0.81379,-1.2014,-0.84417,-0.35952,2.14,0.76273,-1.7877,-0.51261,-0.10457,-0.53803,-0.38501,-0.69108,0.53311,0.37998,0.30358,-0.30836,0.86486,1.1962,0.53308,-0.46146,-0.56358,-0.20652,-1.2266,0.099296,0.35456,0.12509,0.30377,0.91563,-0.28302,-0.92067,0.66048,-0.41061,-0.41054,-0.56354,0.2782,0.25264,-0.33395,0.6096,0.58412,-0.43602,0.07402,0.20152,0.22701,0.07402,-0.53812,0.099588,1.3239,0.96682,-0.69108,-0.13005,-0.89521,-1.3032,-0.89525,0.38006,0.66075,1.63,-0.33407,-0.30851,-0.86963,0.073965,-0.51268,0.58416,0.048543,0.73726,-0.33398,1.1707,0.22702,-0.10448,-0.28298,0.45684,-0.078996,-0.76756,-0.10452,-0.028078,-0.002534,0.15054,-0.10453,-0.28298,-0.28297,0.50759,0.73708,0.35454,0.20166,-0.25738,0.099559,-0.58902,-0.18093,-0.078966,-0.13005,0.07402,-0.13003,-0.33401,0.30357,1.2216,0.68608,-0.71652,-0.69104,-1.1246,-0.002443,1.6299,1.4259,-0.46154,-0.99723,-1.2777,-0.18101,1.2727,1.3239,-0.053415,-1.2012,0.048585,-0.66564,-0.4871,0.048555,1.4004,0.12505,-0.64006,-0.56357,-1.0227,-0.385,1.5788,1.6297,0.023029,-0.51252,-1.2266,-0.74194,1.2982,1.1962,-0.66555,-0.64005,-0.12999,-0.58903,-0.18103,0.099448,0.0485,0.04858,0.32914,0.25257,0.02301,-0.51253,1.1197,1.5787,-1.4561,-1.1246,0.17609,-0.20655,0.38011,0.27813,-0.078984,0.3545,-0.23201,-0.38511,-0.33418,-0.20655,0.3038,0.63517,0.17599,1.2981,-0.33412,-0.793,0.099724,1.2219,-1.3288,-0.53818,-0.23197,-0.30847,-0.35954,-0.053592,-0.84401,0.66072,1.8336,0.50763,0.73733,0.43129,-0.66558,-0.28306,-0.51257,-1.0482,0.22701,1.0687,0.25258,-0.41058,-0.18099,-0.43595,-0.436,-0.002387,0.43118,1.0177,0.86456,-0.46151,-1.0481,0.32905,0.022961,-0.56354,0.63504,0.60945,-0.30851,-0.28289,-0.10436,-0.58899,-0.38501,-0.053495,0.099528,-0.33407,0.8392,0.27807,-0.20654,0.48216,-0.053482,0.6352,-0.18105,0.20158,-0.7677,-0.28311,0.12504,-0.99723,-0.64012,0.50769,0.71171,-0.23186,-0.53809,1.1195,0.32907,-0.81866,-0.76758,0.48221,1.1198,-0.53804,-0.43602,-0.41054,0.15048,-0.53802,-0.46156,1.1451,1.2726,0.6606,-0.8185,-1.0225,-0.97153,-0.23198,0.227,0.32904,-0.64,-0.12999,0.55858,0.45656,0.074038,0.023047,-0.10447,-0.078947,-0.35951,-0.99725,0.048549,0.50767,1.3494,-0.30851,-0.15539,-0.25773,-0.66562,0.68616,-0.20647,-0.99719,-0.69112,0.22711,0.50765,-0.028066,0.023059,0.86475,-0.64017,0.4311,-0.41049,-0.71657,-0.53804,1.2216,0.40553,-0.61452,0.40558,0.20156,-0.3085,-0.41046,0.048573,-0.078972,-0.20645,-1.099,0.099521,1.5276,1.4001,-0.41041,-0.64004,-0.48705,-0.30845,0.27809,0.099528,-0.43604,0.35456,-0.002461,-0.28301,-0.25755,0.63511,0.83923,0.176,0.45664,0.074008,0.40561,-0.79312,0.023145,-1.0482,-0.283,0.17613,0.099491,-0.56367,0.074038,0.15056,0.43118,-0.46154,-0.61454,-0.23194,-0.41069,0.60955,0.66065,1.4769,-0.027827,0.73718,0.048585,-0.53802,-1.5073,-0.61469,-0.10453,-0.078886,-0.46152,0.12507,0.15057,0.45661,0.023005,0.022986,0.17604,0.4311,-0.053421,0.07416,0.25259,-0.079008,-0.28302,-0.56358,-0.15562,0.48214,-0.23196,0.73721,0.30358,-0.35954,-0.43604,-0.33413,-0.028023,-0.56353,0.35461,0.86461,0.53319,-0.66568,-0.53806,-0.18092,-0.35958,0.048494,0.99227,-0.56366,0.12507,1.1454,0.71174,-0.30852,-0.9717,-0.23204,-0.61463,-0.079045,-0.99713,-0.28308,0.63518,1.3749,0.40564,-0.283,0.17617,0.099601,-0.027931,0.45649,-0.23202,-0.41047,-0.10455,0.023047,0.22704,0.15057,0.22708,-0.078977,0.38008,-0.2575,-0.30855,0.22713,0.27803,0.022901,-0.89515,-0.02792,0.15073,-0.20636,-0.46154,0.1505,0.048415,0.40557,0.76267,0.022986,-0.48711,-0.12995,0.91588,0.30367,-0.18098,-0.46159,-0.69116,-0.35961,0.30361,-0.35953,0.43115,0.43115,0.074051,-0.1045,0.32913,-0.61463,-0.4106,0.94127,-0.33402,0.0485,0.3801,-0.38499,-1.0737,1.0941,0.76267,-0.05347,-0.25736,-0.51249,0.35452,0.15049,-0.69102,-0.15548,0.02301,-0.25748,0.25259,0.30363,-0.30863,-0.51258,0.83924,0.20163,-0.079014,-0.53819,0.099583,-0.053427,0.43121,0.048549,-0.53814,0.048512,-0.18103,-0.4871,-0.43607,-0.38502,0.63517,0.83918,-0.6146,0.35477,1.2729,-0.002528,-0.3851,-0.30858,-0.28308,0.58424,-0.20648,-0.46154,-0.053476,0.53302,-0.30854,-0.18101,0.048506,-0.23194,0.12509,0.38004,0.58408,-0.18097,-0.48699,-0.66555,0.50763,-0.43596,-0.20647,1.1706,-0.41049,-0.15548,0.53305,0.12502,-0.79313,-0.79309,0.25273,0.1762,-0.58907,-0.1045,-0.28315,-0.079118,0.27808,0.20162,0.7627,0.81375,0.50769,-0.51262,-0.46156,-0.9462,0.099595,-0.41056,-0.5891,-0.28299,-0.3595,-0.002443,0.58416,0.81375,-0.12993,-0.15543,-0.078923,0.76268,0.78805,0.60965,-0.053482,-0.79315,-0.79313,-0.35946,0.023084,-0.15553,-0.48702,-0.30851,1.2981,0.20155,-0.25751,-0.30849,0.22707,0.099564,-0.053451,-0.05347,-0.12995,-0.002461,-0.002472,0.6097,-0.33396,0.1251,-0.35959,-0.38506,0.22705,0.63513,-0.053366,0.15064,0.58423,-0.20647,0.20162,-1.0738,-0.51268
-0.18099,-0.05347,-0.13001,0.099559,0.55868,0.38013,-0.18101,-0.15551,-0.30854,-0.30852,-0.23201,-0.002467,0.048531,0.22707,0.43112,0.2781,0.048549,-0.20652,-0.053446,-0.28302,-0.10447,-0.25753,0.074051,-0.053482,0.22706,0.15055,0.15057,-0.027962,-0.078972,-0.15549,-0.18098,-0.053476,0.048531,0.074038,0.22706,0.09954,0.023047,-0.027969,-0.18101,-0.23201,-0.027969,-0.078972,-0.10449,0.15056,-0.23205,0.3036,0.27813,0.30365,-0.28303,-0.30853,-0.28303,-0.28305,0.048518,0.12504,0.17607,0.20158,-0.027969,-0.027969,-0.10447,-0.15547,0.023059,-0.15552,0.22708,0.30358,0.27811,-0.053488,-0.20652,-0.20652,-0.181,-0.2575,-0.078953,0.048567,0.12505,0.023047,0.023035,-0.027974,-0.078977,-0.002461,-0.23203,-0.25753,-0.027956,0.099546,0.023017,0.20156,0.6607,0.38014,-0.002454,-0.30855,-0.20652,-0.283,0.074087,-0.10448,-0.0535,-0.33408,-0.10453,0.023023,-0.053476,0.15058,0.40565,0.023072,-0.20651,-0.078972,-0.15551,0.43116,0.2271,0.32912,-0.20653,-0.002454,-0.46159,-0.46158,-0.33404,-0.10449,0.09954,0.099528,0.12506,0.15059,0.2016,0.074057,-0.027969,-0.28303,-0.35954,-0.027969,0.40564,0.53317,0.38008,0.45661,-0.20646,-0.48704,-0.58909,-0.15548,-0.28308,-0.30858,0.12502,0.20156,-0.028011,-0.02795,-0.35957,0.78829,0.30363,0.099608,-0.053464,0.22707,0.20157,-0.33409,-0.33404,-0.10451,-0.10449,-0.30854,-0.48711,-0.12998,0.17609,0.63521,0.25258,0.6607,0.074026,-0.48712,0.023078,0.58424,-0.23202,-0.53812,-0.078972,0.099577,-0.1045,0.023047,0.023029,-0.28307,-0.13003,0.15057,0.09957,-0.002436,0.12505,0.73725,0.25259,-0.027962,-0.25748,-0.436,-0.56353,-0.48706,-0.13002,-0.3341,0.40563,0.38011,0.3801,0.099546,0.074013,-0.079008,-0.002423,-0.002443,-0.30854,-0.2065,-0.48708,-0.23201,0.12507,0.66073,0.17607,-0.002485,-0.56364,-0.30856,-0.18103,0.66073,0.32913,0.048567,-0.28304,-0.027987,0.32911,-0.58916,-0.002443,0.30364,0.20161,-0.28305,-0.7167,0.12505,0.15054,0.12503,0.38013,-0.20652,0.12505,-0.0535,-0.18099,-0.078959,-0.35951,0.38014,-0.20661,0.43107,0.78821,0.99226,0.15054,-0.61464,-0.53801,-0.8696,-0.8187,0.074057,0.27812,0.50765,0.30355,-0.05358,0.32917,0.20163,0.15059,-0.46159,0.074062,0.074087,-0.002436,-0.028005,-0.20656,0.048525,-0.027974,-0.64015,-1.0228,0.89031,0.50769,-0.25756,0.55871,0.71173,0.48208,-0.51267,-0.58915,0.22714,-0.51254,0.81379,0.32913,-0.15551,0.32909,-0.56367,0.3291,0.2781,0.15053,-0.15554,-1.2523,-0.23185,0.78833,0.83925,0.30359,-0.002546,-0.41061,-0.10452,-0.028054,-0.71663,-0.69111,0.27817,0.27815,0.1506,-0.23204,0.60969,0.3036,0.40566,-0.28302,-0.23203,-0.84419,-0.35957,-0.35954,0.55867,0.63519,0.45662,-0.027956,-0.18109,-0.56346,0.27809,0.68593,-1.0736,-0.61446,1.4002,0.22702,-0.38506,-0.56354,-1.0482,0.32921,0.71176,1.7319,0.074013,-0.58909,-0.43604,-0.51256,-1.2267,0.30339,1.1709,-0.05339,0.12503,0.53306,-0.48707,-1.0227,-0.002412,0.20158,0.074069,-0.028005,0.30353,-0.18108,-0.232,-0.28292,-0.15542,-0.15544,-0.30852,0.32896,-0.079014,0.89021,1.0942,-0.053451,-0.41058,-0.38513,-0.181,0.43122,-0.28292,-0.053415,-0.38499,-0.9207,-0.13001,-0.43609,0.48204,0.048536,2.9305,1.0434,-0.61456,0.20158,-0.66551,-1.6347,-0.9972,0.25246,0.40549,-0.10452,-0.28289,-0.18089,-0.56373,1.0942,1.0943,0.83942,0.71175,0.99216,0.50752,-0.56373,-1.6348,-1.1756,-1.4306,-0.46159,-0.05347,-0.027956,1.2982,1.5022,-1.9916,0.40552,1.6807,-0.23181,-0.58886,0.35458,0.55843,-0.84429,0.12513,-1.303,1.4515,0.37995,-0.38512,-1.4561,-0.74208,-0.027969,0.27793,0.45654,-1.5326,0.32899,1.4001,1.7318,-0.12989,-0.89505,-0.23187,-1.4052,-0.4615,1.3747,1.5535,0.074118,0.25244,-1.2267,-1.2013,0.45665,0.89036,-1.4051,0.68603,0.94115,1.0943,-0.76764,-1.5073,-0.13009,0.023328,-0.30836,1.6805,1.7572,-0.027895,-1.3796,-1.5072,-0.74206,-0.33404,0.17609,0.27798,0.27804,1.2728,1.1707,0.074118,0.15066,0.27814,-0.38504,-1.5329,-0.97165,0.15057,0.53322,-0.12999,0.17607,-0.51265,0.12511,2.0123,0.55848,-1.5073,-1.7623,-0.23195,-0.078935,-0.12994,0.58416,0.22708,-0.41049,1.6297,-0.38526,0.45673,-0.99689,2.293,1.451,0.43087,-2.4508,-2.3741,-1.7366,-1.5836,1.4001,1.094,-0.10445,1.5021,0.96657,0.68629,0.96691,-0.18093,-0.76771,-0.84414,-0.53803,-0.79313,0.1506,0.074057,0.30361,-0.10451,0.27809,0.32913,0.38014,-0.20655,-0.10451,0.074038,0.27824,0.9412,-0.6146,0.074075,-0.20646,-0.15559,0.099546,0.55673,-0.18282,-0.36133,-0.92237,-0.36133,0.2524,2.0376,0.35454,-0.69093,-1.1499,0.37999,0.30354,-1.201,-0.79307,0.89023,1.9103,0.048549,-0.28297,0.55862,0.32902,-0.51259,-0.28298,-0.487,-0.56358,-1.2013,-1.5584,1.9106,2.2422,1.4004,-0.6656,-1.0228,-0.69129,-0.69121,-0.74216,-0.92059,0.53312,0.83917,0.45674,-0.18079,0.38025,-1.3541,1.3236,2.3946,-0.56361,-0.92055,-1.8131,-1.1757,0.76265,1.3748,1.0178,0.17598,-1.4307,-0.53809,0.96672,0.53307,-0.35962,-0.84393,0.81357,0.43096,-0.51258,-0.79312,-0.33401,0.17614,-0.6655,-0.0791,1.3492,0.45667,0.35475,-0.12991,-0.66561,-0.79316,0.32912,1.1199,0.71175,-0.74221,-1.3034,-0.41049,0.074057,2.8794,-0.41055,-0.89508,-0.283,-0.79302,-0.69105,-0.23199,1.4001,1.5276,-0.76747,-0.76743,-1.2265,-0.69095,1.7827,1.7062,0.66058,-0.4616,-0.71657,1.1195,0.22699,-0.89512,-0.43602,-0.76739,-0.51246,-0.28297,-0.30846,0.22709,-0.23204,-0.30856,1.2218,0.329,0.15055,0.048518,-0.38508,0.074033,0.99239,1.783,-0.43608,-0.79317,-0.56366,-1.1503,-0.53812,-0.43609,0.4822,-0.63993,0.27808,0.91562,0.048678,0.30363,1.6809,-0.18097,0.1505,0.38003,-1.6346,-0.07899,0.89001,-0.5126,-1.3796,0.60962,-0.02792,-0.53798,-1.6345,1.1452,1.6806,-0.23209,-0.35941,1.6553,0.55866,-1.2777,-1.2522,-0.28289,0.1506,-0.053476,-0.20655,-0.15559,-0.002497,1.1454,0.38016,-0.79309,0.48206,0.099497,-0.69116,0.38011,0.20159,-1.0228,-0.20646,0.32905,0.25251,-0.43597,-1.3796,1.3236,1.4257,-0.69099,1.2218,0.63511,-1.252,-1.6091,0.68608,1.0431,-0.23203,-0.12995,-1.3287,0.27802,0.25248,0.35459,-0.027944,-0.63998,-0.35952,0.81357,0.81365,-0.25751,-0.15546,0.023059,-0.20651,0.53301,0.45651,-0.20641,-0.5635,-0.58906,-0.38507,-1.0227,-0.027956,3.0839,1.0433,-0.71665,-1.0228,-1.2778,-0.13026,0.35459,-0.23191,-0.58903,-0.58913,-0.63998,0.66075,2.3184,0.30362,-0.89503,-2.0681,0.63509,2.3947,-0.079002,-1.15,-1.252,0.76248,1.6805,0.94107,-1.2519,-0.9969,-0.10447,0.22705,-0.10449,-0.43613,-0.48719,0.40557,1.1963,-0.079039,-0.46152,-0.20649,-0.30854,0.22711,-0.002461,0.20158,-0.18103,-0.15549,0.32915,0.22712,0.81383,-0.23194,-0.53812,-0.053611,-0.51263,0.45669,0.099619,1.7318,-0.10456,-1.4562,-1.0992,0.94095,-0.51255,-0.35937,-2.1191,1.5786,1.808,0.58416,-0.97143,-0.35932,-0.38491,-0.10449,0.86461,0.38003,-0.33409,0.35448,0.94107,-0.8696,-1.252,-0.58886,0.1251,0.27803,0.20155,0.074008,0.0485,0.32907,-0.28309,-0.66567,0.099564,1.7321,0.78831,0.38019,-0.92071,-0.38503,-0.7167,-0.61468,-0.33409,-0.58915,-0.027969,0.86481,0.58425,-1.6857,0.17611,4.1038,2.1655,-0.48717,-1.8898,-0.99723,-0.61457,-0.51256,-1.0481,-0.69102,-0.63996,1.3747,1.5531,0.32897,1.0176,-0.76735,-0.30835,1.0433,-0.079045,-1.3286,-0.56358,-0.18103,-0.15557,0.43099,0.35457,-0.81861,0.76269,-0.28319,-0.38498,-0.20641,0.66085,-0.053409,-0.79317,0.81375,-0.25763,-0.41054,-0.58911,0.30362,-0.38521,0.35458,-0.56351,1.0942,0.04861,0.32912,-1.3541,0.099521,3.4404,0.50765,-1.7109,-1.0736,-0.81878,-0.86963,0.35468,0.074228,0.91551,-0.28306,0.25252,0.38005,-1.048,-0.38496,-0.15546,0.38014,0.60955,0.68607,-0.15538,0.2526,-0.33401,0.40552,-0.28297,-0.84403,-0.079026,0.38008,-0.20654,-0.51254,-0.13,0.023072,-0.00254,-0.43604,0.38013,0.58421,1.0179,0.023181,0.1249,-1.2012,-0.64016,0.22696,-0.30852,0.431,0.15053,-2.0171,1.0432,2.2164,-0.97134,-0.89499,-0.64006,0.073989,0.66055,0.20152,-0.12998,0.66052,-0.4105,-0.15548,0.63493,0.78824,0.27821,0.38011,-0.079014,-0.99718,-0.66557,-1.4816,-0.10456,0.6605,0.3801,0.20167,-0.74199,0.20153,0.35459,0.17601,0.20157,-1.2011,1.0178,1.196,-0.58909,-0.51257,0.27809,-0.58897,-1.3541,0.83914,0.78807,0.81373,-0.56354,-0.86962,0.04858,0.099485,0.20154,-1.3542,-0.15531,3.2619,1.3747,-0.8697,-1.1502,-0.41033,-0.48698,-0.38499,0.073953,0.22704,-0.53808,-0.81855,-0.12992,0.71163,0.074051,0.25257,0.023023,0.60954,0.91557,-0.027925,-0.71654,-0.43601,-0.41047,-0.23199,1.1454,0.12504,-0.38505,-0.3596,-0.25761,-0.94614,-0.43618,0.86465,-0.10445,1.222,-0.53804,-0.53781,1.5787,1.349,-0.69116,-0.92069,-2.1447,0.99221,1.4259,-0.38493,-0.89512,-0.38503,0.15049,-0.10456,-0.027969,0.53298,0.43107,0.074087,-0.002363,0.074124,0.074069,-0.4871,0.27808,-0.053458,-0.10452,-0.51262,0.63525,0.58412,-0.92065,-0.23201,-0.002418,-0.97156,-0.15555,0.86453,0.22702,0.12502,-0.69096,0.25265,0.22707,0.22716,-0.25744,-0.35959,0.12507,-0.15558,0.533,-0.12994,0.63517,1.3747,0.048543,-1.5073,-1.0736,0.94132,1.4258,-0.66564,-1.1502,0.71162,-0.10458,-0.4361,0.91576,-0.33395,0.55865,0.78828,-0.38505,-2.8844,0.99205,2.3693,-0.002289,-0.84399,0.96658,0.63512,-1.8387,-1.3031,-0.41056,0.074075,0.7881,0.32913,0.81365,-0.12994,-0.20647,0.074062,-0.078984,-0.35952,0.38006,0.15046,-0.027993,0.4056,-0.02795,-0.30846,-0.4615,-0.078923,-0.25758,-0.028036,0.50751,-0.25759,-0.81851,0.35469,0.27817,0.43123,0.20156,-0.053495,-0.053549,-0.41063,-0.25757,0.27808,0.50765,-0.18097,0.38015,0.73711,0.099534,-0.20642,-1.2522,0.15064,0.45662,0.2271,-0.23205,0.074038,-0.25755,0.20165,0.58417,0.25255,-1.3796,1.2216,1.1451,0.58413,-0.027613,0.15078,-1.2267,-0.4361,-0.69113,0.22695,-0.56358,-0.35953,0.96661,1.0176,0.94109,-0.12994,-0.28285,-0.027846,-0.46151,-0.18099,-0.1045,-0.002485,0.35457,0.5076,0.02298,0.40551,-0.079021,-0.81855,-0.20644,0.45645,-0.053397,-0.078947,1.2218,0.12516,-0.81863,-0.53824,0.27806,-0.002394,-0.46151,-0.89506,0.55862,0.66059,-0.232,0.1506,1.3492,0.15059,-0.84407,0.023047,-0.002558,-0.027987,0.022992,-0.25754,-1.1246,0.20158,0.63517,-0.25743,-0.12993,-0.12995,0.048531,-0.56368,0.58419,0.20157,-0.33404,0.17603,-0.002497,-0.20648,-0.10447,-0.18095,0.074087,-1.1501,0.023005,1.4257,0.22691,-1.0225,0.40568,1.7827,-1.2521,-0.71656,-0.30861,-0.56362,-0.6911,-0.30851,0.30364,0.76263,0.38011,-0.56348,1.298,0.099699,0.35469,1.2983,0.43112,-0.48705,-1.4308,-1.3798,-1.2268,0.12505,1.7063,1.2982,0.30361,-0.43585,-1.2521,-0.15548,-0.002443,-0.15553,-0.07899,0.27808,0.27806,-0.028011,0.048536,0.1506,0.48211,0.17604,-0.33393,-0.20647,-0.58901,1.3492,1.8337,-0.86963,-0.94597,-0.71646,0.099657,-0.43602,-0.33406,-0.38508,0.48194,0.81358,-1.3286,0.89013,1.1706,0.78813,-0.487,-0.92053,-1.3031,0.83922,1.2219,-0.92059,-1.0737,0.8901,-0.027998,0.15063,-0.25753,-0.30857,-0.89524,0.048561,0.53315,0.99232,-0.002485,-0.20655,-0.71656,-0.15545,0.96679,0.1251,-0.13004,-0.48711,0.27796,-0.66556,0.25251,0.7626,-0.46143,-0.51246,0.40557,-0.46149,-0.51247,-0.46153,1.2725,0.048536,-0.078953,-0.18091,-0.25745,0.22709,-0.20652,-0.48712,0.81378,0.17604,-0.30863,0.9413,0.048549,-0.4106,-0.86973,-0.25756,-0.23196,-0.053464,0.35465,-0.15551,0.22708,-0.10444,-0.43592,0.89004,0.635,-1.5325,1.3237,0.81369,-0.71654,-0.002369,-0.84406,-0.25746,-0.46162,0.63506,0.53302,-0.56355,-0.94603,0.20159,0.45658,0.023023,0.22702,0.20153,0.1251,0.15057,-0.002448,-0.15544,-0.69103,1.0686,0.25253,0.023072,-1.0227,-0.41048,-0.53806,0.43123,-0.18099,0.71175,0.22706,0.63521,-0.35958,-0.35963,-0.38516,-0.41066,0.27811,-0.51243,0.27809,0.45662,0.27817,-0.51242,0.94107,1.1196,-0.97161,-0.81855,-0.053188,0.35453,1.0942,-0.25752,-0.6401,-0.28308,-0.53806,0.074075,-0.15551,0.099528,0.5076,0.86469,-0.28302,-0.51255,0.099564,0.0485,-0.12996,-0.20651,0.074013,-0.20649,-0.76757,1.3237,0.68606,0.83912,-1.0225,-1.1756,-0.56347,-0.46151,-0.8185,1.2981,0.7626,-0.18101,-0.56357,-0.18097,0.5332,1.0433,-0.078935,0.63511,-0.41063,-0.4871,-0.41059,0.074087,0.1506,-0.33406,0.43117,0.25261,0.73724,0.0485,-0.76764,-0.48708,-0.38505,-0.793,0.17598,1.3236,1.5278,-0.23179,-0.79299,-0.28298,-0.35955,-0.283,-0.79302,0.66062,0.94108,-0.00251,-0.05336,-0.48698,-0.28295,0.30353,-0.46148,0.30355,1.4001,-0.053482,0.25257,-0.05347,-0.74215,-0.30851,0.30369,0.30365,-0.30857,-0.43609,-0.002497,0.35461,-0.078984,0.15059,0.4566,-0.002454,-0.71668,-0.28305,0.25262,0.09954,0.074026,0.38019,-0.027871,-0.48709,0.022931,-0.33415,0.40567,1.9361,-0.20646,-0.7931,-0.18106,-0.86955,-1.7367,0.76248,1.6806,-0.02792,-0.69091,0.32924,-1.6601,1.0431,1.6551,-0.35951,-0.89503,-0.69101,-0.027931,0.074057,0.73711,0.15054,-0.23196,0.50762,0.68619,-0.28295,-0.79308,-0.38503,-1.3288,1.2728,0.94113,-0.41051,-0.33399,-0.6146,-0.6146,-0.12998,0.1251,-0.232,0.30356,1.1962,0.022986,-0.99726,-0.053433,0.25254,0.63515,0.45658,-0.6911,-0.18096,-0.002491,-0.8695,-0.12996,1.0176,0.68611,0.992,-0.94593,0.07416,0.12509,-0.18098,-0.97167,0.32915,-0.30863,-0.053622,0.022986,-0.283,-0.12993,-0.027913,0.074069,0.023041,0.15056,0.074111,-0.23197,-0.18104,-0.079002,0.50765,0.35464,0.15066,-0.02792,-0.35954,-0.69111,-0.02798,0.76257,-0.33398,-0.89501,-0.18094,1.9102,-0.38513,-0.30854,0.81393,0.94136,0.20158,-1.0228,-0.35961,-0.51268,-0.66564,0.6352,0.40554,0.32908,-0.10444,-1.0225,-0.053495,0.45658,-0.46162,0.22707,0.96682,0.50775,0.38016,-0.41054,-0.53809,-0.43607,-1.1757,0.43101,1.8847,0.30357,-0.027871,-1.099,-0.71651,0.63512,0.45653,-0.66554,0.43112,0.71154,0.023065,-0.43601,0.27806,0.099552,0.099546,-0.56355,0.17609,-0.053384,-0.33404,0.66058,0.55875,0.38018,0.50747,-0.69109,-0.81862,-0.5635,-0.41052,0.68622,0.32907,0.022974,0.55866,-0.25737,-0.41058,-0.20655,-0.9972,0.78825,0.27818,0.73722,-0.25752,-0.079014,0.48203,0.12496,-1.1501,-0.51252,0.25263,-0.23197,-0.30843,0.099583,1.2472,0.58402,-0.079014,0.329,-0.56353,-0.76753,-0.86963,0.023065,0.50772,0.73716,0.30356,-0.283,-0.23203,-0.23205,-0.13004,0.22708,0.20158,0.58417,-0.02795,-0.18101,0.15048,-0.76758,0.023108,2.0889,-0.28304,-0.64009,-0.12995,-0.61455,0.35456,-0.28316,-0.46146,0.023041,0.50757,-1.0992,-0.13004,0.66069,1.4259,-0.2574,-1.0736,0.35444,0.53302,-0.28303,-0.002472,-0.2575,0.53314,-0.56359,-0.10439,0.55869,1.1707,-0.33408,-0.58908,-0.20652,0.17601,-0.12998,-0.38499,-0.28302,0.27798,0.50759,0.09954,0.09954,-0.18094,-0.25753,-0.48706,0.12505,0.32909,0.15056,0.023059,-0.078928,-0.15548,-0.13009,-0.12997,-0.4615,-0.35946,0.12513,-0.41061,0.7881,-0.2063,0.22717,1.3236,1.3491,-1.3287,-1.2267,0.048616,0.15064,-0.10436,-0.25758,0.022986,-0.64013,0.17611,0.55867,0.6606,-0.1301,-0.13002,-0.48697,0.25264,0.5076,0.17595,-0.18097,-0.74202,0.45673,0.58408,0.20154,-1.2776,-1.0736,1.7828,0.4056,1.0431,-0.07899,-0.20639,-0.58908,-0.33406,-0.7676,0.25252,0.55854,0.22708,-0.38502,0.38019,0.0741,0.38013,-0.41067,-0.15553,-0.56353,0.38013,-0.35953,-0.46156,-0.58909,1.0177,1.1453,0.27805,0.022992,-0.23202,-0.92057,-0.3086,0.45667,-0.30848,0.073977,0.76269,-0.5381,-0.43586,0.20148,1.2726,-0.30858,-0.84414,-0.33391,-0.35948,-0.027956,0.3291,-0.002497,-0.25754,-0.15554,0.17608,0.12511,-0.078996,1.1961,0.15053,-0.58898,-0.12993,0.38018,0.15065,-0.028023,0.30359,-0.38503,-0.8186,-0.89517,0.278,0.048659,0.60964,-0.58907,0.55862,-0.079021,-0.25757,0.048525,0.15058,-0.002491,-0.66549,0.94106,1.4003,-0.35944,-0.28299,-0.487,-1.2011,-0.53808,-0.079118,1.0942,0.63526,-0.18085,-0.002454,-0.46151,-0.51256,-0.07913,-0.43607,0.35457,-0.079081,0.074013,0.81369,-0.38505,-0.33396,-0.64006,0.22718,1.3239,1.2728,0.04842,-0.53809,-0.43604,0.91557,-0.23207,-0.35948,-0.23188,-1.0736,0.4565,-0.25756,-1.5072,-0.81857,0.68609,1.4768,1.0431,0.30358,0.048585,-0.35953,-1.2266,-0.41051,-0.33407,0.38011,-0.053464,0.22709,0.81358,0.07402,0.074111,0.048653,-0.66561,-0.41057,0.58411,0.55862,-0.35948,-0.10445,-0.30853,-0.078959,0.25254,0.048665,0.48218,0.27799,-0.6911,-0.13003,-0.10459,-0.23201,-0.43599,-0.12993,0.17614,-0.15544,0.17609,1.0431,-0.53803,0.02298,0.43122,-0.18088,1.0431,0.02301,-0.46148,-0.25754,-0.053544,-0.46153,-1.4561,0.12508,1.1706,0.073995,0.60963,0.27818,-1.2775,-0.28297,-0.13004,-0.43604,0.63506,0.48205,-0.51261,-0.61459,0.63523,-0.38491,0.30361,0.6096,-0.25752,0.099503,-0.53811,-0.5635,0.3291,-0.43605,0.22702,-0.053451,0.17612,0.32901,-0.30847,-0.89499,-0.20643,1.8592,1.5277,-0.53803,-1.0991,-1.1501,1.0686,0.58407,-0.13007,-0.99698,-0.3851,-0.002497,0.32909,-0.18104,1.3238,0.20166,-0.33398,-0.23199,-0.12996,0.83922,-0.18093,-1.0992,0.022883,0.71158,0.53321,-0.48703,-1.7112,-0.28312,1.5022,0.22712,-0.46142,-0.00243,-0.43608,-0.028042,0.73711,-0.25748,0.074155,0.4567,0.023059,-0.7166,-0.028054,1.1451,-0.07899,-0.74214,-0.30851,0.15065,0.68617,-0.028029,-0.56361,-1.8131,0.27799,2.5733,0.50759,0.12523,-1.7621,-0.94613,1.4,0.55858,-0.71652,-0.53804,-0.51255,0.074033,0.074013,0.15051,-0.002472,-0.53806,-0.053421,-0.12994,0.22707,0.89019,0.43098,-0.7676,0.60961,0.12499,-0.74214,0.40578,-0.23189,-0.71656,-0.74225,-0.028066,-0.46156,1.6552,-0.23198,-0.48699,0.048543,0.50763,0.20159,0.35457,-0.48689,-0.053482,0.176,0.63504,0.40551,-0.69101,-1.0226,-0.41044,-0.41035,0.83921,0.89018,-0.74216,0.78805,0.27803,-0.15551,-0.61454,-1.4563,0.04858,0.27821,0.50774,1.3237,-0.283,-0.35956,-0.25758,-0.69111,0.38016,0.20169,0.40565,-0.436,0.073959,0.91549,0.60956,-0.64001,-0.66554,0.12506,-0.76755,-0.15549,0.32903,0.48214,0.86474,0.048536,-0.053604,-0.76766,-0.38503,0.20147,0.048616,-0.027846,0.63509,0.1761,-0.027913,-0.33406,-0.61461,-0.69114,0.074093,0.30363,0.099564,0.53316,0.22703,-0.18104,-0.23198,-0.10442,0.30358,0.25245,0.37998,-0.48701,-0.58903,0.25259,0.60962,-0.66536,0.15054,-0.1556,0.27798,1.2473,0.227,-0.63992,-0.86957,-0.41043,-0.18097,-0.15549,-0.20656,0.27793,0.15048,-0.028005,0.073995,0.17602,0.15055,0.35464,0.099583,-0.027987,0.099588,-0.51248,0.50773,0.15059,0.32898,-1.1501,0.15052,0.81363,0.25261,-0.35941,-0.487,-0.33413,-0.028114,0.12504,-0.41054,-0.28298,0.2016,0.3036,0.25259,-0.027889,-0.86952,0.48208,0.45647,0.8393,0.20166,0.71163,-1.4053,0.76269,1.0688,-1.5327,-2.4507,-0.66564,-0.002693,-0.20667,-0.028042,0.71157,0.86466,0.50762,0.32912,0.38016,0.15062,0.099595,0.048567,0.099577,0.048549,-0.30849,0.074051,0.15049,-0.18105,-0.38486,1.0178,-0.97159,0.35438,1.6806,-0.18098,-1.0736,-0.99703,-0.89509,0.17607,0.68623,1.0178,0.35465,-0.46164,-0.23212,-0.1301,-0.053568,-0.20653,0.53309,0.074057,0.25263,-0.02784,0.074069,-0.15548,-0.15548,0.048512,-0.56358,0.78813,-0.23197,-0.2065,-0.12994,-0.61458,-0.20646,-0.35951,0.32922,-0.51259,1.502,0.37996,-1.3542,0.20155,-0.74195,0.53317,1.4767,-0.41052,-0.30843,-0.078972,0.60964,-0.18094,-0.53803,-0.69107,-0.20649,0.15055,0.30355,0.27796,-0.053415,0.12513,0.81358,0.12504,-1.3288,-0.027895,0.86488,0.048598,-0.86971,-0.13,-0.33406,-0.18102,-0.23194,0.27809,1.0177,-0.20652,-0.18103,-0.84415,-0.33396,-0.35936,0.35464,0.20154,0.58421,-0.51252,0.37996,1.4001,0.048506,-0.74205,-0.48695,-1.1246,-0.18091,-0.078959,0.023121,0.76263,1.5786,0.38006,-0.5125,-0.66554,-1.4816,-0.53806,0.89009,0.6862,0.68619,-0.28296,-0.61458,-0.51258,-0.078947,0.3291,0.45659,0.17606,0.048543,-0.56366,-0.13002,0.17606,0.78827,1.3239,-0.28303,-0.64013,-0.8187,-0.13005,0.15051,0.50768,0.099595,0.6097,0.023096,-0.51255,-1.0481,0.30358,0.60955,-0.12998,-0.33404,-0.79305,-0.334,0.78807,1.1962,-0.10439,1.3494,0.20157,-0.15553,-0.61462,0.048415,-0.053549,-0.89509,-1.3031,0.32912,0.3036,0.38008,-0.078917,-0.15549,0.048506,-0.15556,0.048561,-0.46155,1.1452,1.4767,0.048647,0.048671,-0.053409,0.17612,-0.79317,-0.23201,-0.33407,-0.5381,-0.28298,0.58414,0.023084,0.074044,0.20155,-0.002472,0.12518,0.48216,0.3801,0.12498,-0.46156,0.71169,-0.94608,-0.89505,-0.1301,0.32907,0.48211,-0.48696,-0.078935,-0.18098,1.2727,0.8136,-0.74211,-0.71653,0.15073,0.048573,-0.13007,0.30363,-0.18102,-0.20653,-0.15545,0.38014,-0.30858,-0.028066,0.35461,0.048629,1.2729,0.17608,-0.027987,-0.053482,-0.30863,-1.2012,-0.74211,-0.23201,-0.15547,-0.027944,0.30361,-0.69103,0.25251,1.5278,0.074081,0.32918,-0.33396,-0.10452,1.1451,-0.71655,-0.61452,0.099497,-0.13002,-0.53806,0.30357,0.22707,0.43107,-0.053427,-0.18099,-0.84416,0.17612,0.50773,-0.51245,0.2525,0.38008,0.15055,0.15058,-0.053446,-0.76763,-0.18101,0.27806,-0.20639,0.76272,1.9866,-0.58911,-0.97163,-0.33403,-0.92055,0.32915,-0.002436,-0.18099,-0.002485,-0.10454,0.023041,0.40565,0.83923,1.2984,-0.2575,-0.84413,-1.3032,-0.94614,0.099515,0.60955,0.15044,1.7827,-0.66546,-0.46148,-0.76747,0.15051,0.40558,-0.64002,-1.0736,0.38024,0.43112,0.30349,-0.1046,-0.07899,0.38005,-0.41047,0.099491,0.176,-0.20652,-0.35954,0.099588,-0.38506,0.73726,0.35471,0.22719,0.38014,-0.028029,-0.66567,-0.84421,-0.74218,-0.35954,1.0433,1.2217,-0.58901,-0.078959,-0.027969,-0.74218,0.20164,0.45667,0.48214,0.38013,-0.41051,-0.05358,0.15046,-0.28298,-0.38495,0.43116,0.22706,-0.43603,0.32905,-0.35961,-0.46159,-0.25748,0.17609,0.12504,-0.10447,0.15057,0.12504,0.48209,-0.2575,-0.25752,-0.92059,0.43118,0.7372,-0.13001,-0.13,-0.86969,0.023035,0.96667,0.53309,-0.053598,0.43118,-0.58902,-0.38497,0.048629,-0.58903,0.12498,0.30356,-0.078972,0.5076,0.89023,-0.84419,-0.002418,-0.18098,0.53315,-0.30856,-0.28301,0.25264,-0.18099,-0.46165,0.25254,0.53317,0.20157,-0.15546,-0.33405,-0.66551,0.07391,0.53301,-0.02792,0.71163,-0.078947,-0.48698,-0.15548,-1.1244,0.4822,0.68604,0.20153,0.12497,0.073995,0.2271,-0.53807,-0.33404,0.15062,-0.20653,0.1506,0.5076,0.2526,-0.38508,-0.027944,0.2271,-0.43598,0.55861,1.1197,-0.30848,-0.99716,-1.0482,-0.10444,0.22712,0.55866,0.1505,0.25256,0.48219,0.12505,-0.053544,-0.84417,-0.92063,0.45661,0.53323,0.6097,0.25244,-0.41052,-0.33398,-0.12993,-0.1555,0.50757,-0.69101,0.2015,1.2471,-0.53806,-0.436,-0.1554,-0.20641,-0.79307,1.4512,1.0942,-0.41054,-0.436,0.17604,-0.15547,-0.5381,0.15055,0.20155,-0.15549,-0.76755,0.099577,-0.15555,-0.053464,0.60974,0.12513,0.48214,0.35462,-0.64013,-0.66575,-0.41062,-0.10443,-0.12997,-0.74214,0.22708,0.60965,-0.1555,0.15054,-0.079014,-0.002472,0.074062,0.17608,-0.43606,0.40565,0.27806,0.32899,0.176,-0.48702,-0.71652,0.125,0.15053,-0.1045,-0.46152,0.09957,0.91559,0.30352,-0.33401,-0.58912,0.15061,0.023108,-0.0535,0.40564,0.40563,-0.20645,0.38009,-0.66563,-0.74216,-0.28309,-0.53814,-0.053531,0.15052,0.45663,0.25259,-0.28301,-0.92064,1.4002,1.1197,1.0688,-0.053397,-0.89504,0.023163,-0.7676,-0.86959,-0.3595,0.50752,0.22692,-0.58916,0.022919,0.09951,0.94106,-0.33394,-0.20636,-0.28292,0.12509,0.40558,-0.027998,0.12496,0.22708,0.27812,-0.053335,-0.844,0.83914,-0.51263,-0.20656,-0.23204,-0.18102,-0.35954,0.22707,0.40557,0.66073,-0.027931,-0.10447,0.48219,0.048561,-0.56362,-0.4361,0.73725,-0.002418,-0.10444,0.35453,0.37997,-0.56362,-0.35953,-0.76752,0.048683,0.68611,-1.0481,-0.53803,0.4311,0.50762,0.27802,-0.43613,0.35452,0.81368,0.66063,-0.053513,-0.10453,0.22711,-0.02792,-0.10439,-0.71654,-0.33404,0.099534,0.023133,-1.0481,0.25247,0.048525,-0.30849,0.17606,-0.027998,0.55859,0.91566,0.45672,0.12516,-0.58911,-0.64011,-0.51266,0.50751,0.074033,0.048561,0.17609,0.2271,-0.232,0.023072,0.40566,0.30361,-1.0226,0.76267,0.53311,0.22711,-0.46152,-0.25748,-0.002485,-0.053458,-0.41054,-0.2321,0.12498,-0.43609,-0.053446,0.63518,0.63512,0.099521,-0.76757,-0.53805,1.5789,0.3036,0.048598,-0.43601,-0.48708,-0.23199,0.099588,0.55849,1.0941,-0.74203,-0.15542,-0.69104,-0.30852,0.17601,-0.35954,-0.027944,0.71176,0.27814,-0.002467,-0.10452,-0.25756,-0.10454,-0.12999,0.53321,-0.02795,0.099559,-0.35953,-0.99715,-0.18103,-0.53807,-0.25746,1.1454,1.1196,-0.20649,-0.97152,-0.71658,-0.53803,-0.18101,0.30359,0.048536,0.22702,1.1706,-0.027974,-0.28292,-1.2266,-0.48694,0.71167,0.58407,-0.41048,-0.71639,-0.13005,0.89007,0.25258,-0.48709,-0.28306,-0.23197,-0.33401,0.43108,-0.33405,-0.334,0.22708,0.38015,0.17606,0.35461,-0.10451,-0.10448,0.27815,-0.23196,-0.48708,-0.51262,-0.10452,-0.74217,-0.25749,2.7265,0.66072,-1.4562,0.25248,-0.28311,-0.74205,-0.10445,-0.20642,-0.94606,0.32898,1.0432,0.94118,0.048458,0.9412,0.20159,-1.303,0.073946,0.074038,-0.63997,-0.41043,0.099497,0.27802,-0.46157,0.5075,-0.13001,0.20159,-0.1045,0.35459,-0.23195,0.17611,-0.078972,-0.30845,-0.002448,0.25254,0.25254,-0.283,-0.53806,-0.28302,0.38015,0.86483,0.9157,-0.4871,-0.46156,-0.79318,-0.53809,0.12509,0.30361,-0.10444,-0.027993,1.2727,0.22707,-0.15552,-0.25753,-0.66556,-0.58906,0.12505,-0.38486,0.58409,0.073977,0.58403,0.30353,-0.027993,-0.51252,-1.5326,0.2781,1.9102,0.78808,-0.51247,-0.89499,-0.53801,0.17611,0.099577,0.099528,0.07402,0.20157,0.074057,0.074038,-0.25757,-0.84428,0.45662,0.9669,1.0178,0.12498,-0.20647,-0.43598,-0.30857,-0.74215,-0.28306,0.09951,-0.15553,-0.48706,0.32914,0.22713,0.66071,0.53311,0.73711,-0.86956,-0.79295,0.73709,0.53303,0.43104,-0.79306,-0.74206,-0.053482,0.17606,0.12509,-0.12999,-0.71668,0.45664,0.20155,1.1197,0.074038,-0.078953,0.1506,-0.691,-0.48704,-0.25759,-0.10454,-0.64007,0.55853,0.55856,-0.41056,0.22711,-0.28292,-0.053348,0.38008,0.30358,-0.053519,-0.18102,-0.56355,0.32904,1.4512,-0.63999,-0.56347,-0.12999,0.023029,-0.41057,-0.38507,0.43116,0.50766,0.17605,-0.02798,-0.66566,0.25261,-0.46143,0.35467,0.073984,0.32901,0.22707,-0.71651,-0.30852,-0.23191,0.25258,0.2525,-0.35949,0.43106,0.22697,-0.53807,-0.25747,0.40558,0.074013,0.27804,-0.078941,-0.25744,-0.56347,-0.48707,-0.23209,1.1964,1.4514,0.073928,-0.35963,-0.33396,-0.61449,-0.79312,-0.1556,0.73708,0.60969,-1.1246,0.12509,0.099466,-0.46166,0.27808,0.48222,0.4567,-0.12996,-0.23201,0.17607,0.2526,-0.23202,-0.053482,0.20163,0.6607,-0.053427,-0.079021,-0.61455,-0.053482,1.6296,-0.74205,-0.2065,0.20158,-0.74199,-1.7623,-0.48691,1.2986,0.91586,0.48211,-0.15566,0.022889,-0.053562,0.329,-0.10453,0.048536,-0.002418,0.27815,0.22712,-0.23194,-0.71651,-0.05347,-0.13005,0.048536,-0.56359,0.86477,0.58421,0.099613,-1.3031,-0.1557,0.8901,-0.002369,-0.58909,-0.35964,0.45667,0.53309,0.2526,0.023096,-0.23199,-0.97171,-0.18101,-0.053513,0.40564,0.45664,-0.053519,-0.334,0.71176,1.2473,0.074057,-0.71659,-1.2267,-0.002443,-0.25756,-0.1556,1.2216,0.81371,-0.74198,-0.20647,0.17601
