-0.078984,0.023035,0.099559,0.099564,-0.027969,-0.078984,0.023041,-0.07899,-0.13001,0.023035,0.023054,0.099552,-0.05347,-0.002454,-0.10447,0.023017,-0.1555,-0.053482,-0.002461,0.30361,0.15059,0.048536,-0.002448,-0.027987,-0.078972,-0.1045,0.023035,-0.20653,-0.078996,-0.10449,0.35464,-0.027969,-0.10449,-0.15552,0.048573,0.048531,0.074069,0.074038,-0.053464,0.023017,-0.23202,-0.07899,-0.12999,0.30361,0.12509,0.20157,0.023054,0.074044,-0.10447,-0.053476,-0.027969,-0.027974,0.023047,-0.02798,-0.13002,-0.35956,-0.12999,-0.027956,0.40564,0.1506,0.099559,-0.027969,0.048536,-0.027944,-0.10449,0.023041,-0.13,0.20156,-0.28304,-0.20655,-0.38506,0.27812,0.27814,0.32915,-0.002467,-0.002479,-0.18101,0.048555,-0.10449,0.12507,-0.1045,-0.25755,-0.15551,-0.027969,0.023035,0.2271,0.12509,0.023047,0.099564,-0.053458,0.048531,-0.053476,-0.10449,-0.28304,0.023023,-0.23202,0.099552,-0.053464,0.09957,0.023035,0.09957,0.048555,0.023047,-0.078977,-0.10448,0.09954,-0.10449,-0.002467,-0.10449,0.074051,-0.053464,0.074075,-0.053476,0.17607,-0.12999,0.023023,-0.027969,-0.053488,0.12506,-0.053488,-0.002461,-0.28303,-0.20649,-0.002467,0.22708,-0.078977,0.17609,-0.002467,-0.002472,-0.079008,-0.15548,0.074044,-0.078972,0.099546,-0.027956,0.17606,-0.078984,-0.02798,-0.181,0.15056,-0.05347,0.099564,-0.027974,-0.002454,-0.15552,-0.002472,-0.002472,0.12507,0.074057,-0.12998,0.17607,-0.027969,-0.10449,0.048555,-0.078984,-0.002467,0.099546,-0.12999,0.17607,-0.027956,-0.002461,0.048543,-0.12999,-0.002472,0.099577,-0.12998,0.12506,0.048549,-0.1045,0.048549,-0.027969,0.023029,-0.10449,-0.002467,-0.0535,-0.053464,-0.10448,-0.078966,-0.027962,-0.002472,0.12505,-0.078984,-0.10449,0.099559,0.074062,-0.053482,-0.002461,-0.078977,0.048549,0.09957,-0.078996,-0.027969,-0.13,0.099564,-0.002485,-0.12998,-0.053476,-0.15551,-0.078966,-0.053476,0.099564,-0.002461,0.12506,-0.181,0.074038,-0.053482,0.099546,0.074062,0.17609,-0.10449,-0.13,-0.078984,0.09957,-0.078996,-0.053488,0.023035,-0.002448,0.074033,-0.20652,0.074044,0.20159,0.2526,-0.25751,-0.053476,0.09957,-0.15551,0.074044,0.074044,0.15058,-0.12999,-0.33402,-0.078984,0.40564,0.12507,-0.25756,-0.25754,0.3291,0.023047,-0.20649,0.099577,-0.15549,-0.18105,-0.13001,0.91579,0.58424,0.099559,-0.38509,-0.25751,-0.23209,-0.15555,-0.20652,0.099601,0.048549,0.099601,-0.30855,-0.18101,-0.18105,-0.13,0.50767,0.074075,0.048536,0.60971,1.2219,-0.43609,-0.71668,-0.84424,-0.053519,-1.0228,-1.0228,0.94134,1.8341,0.074118,-0.71671,-0.71666,-0.41055,0.1506,0.91577,0.048531,0.17604,-0.46159,-0.30849,-0.027962,0.55871,-0.56364,0.15053,-0.13001,1.3494,-0.84414,0.20159,-0.079002,-0.28302,-0.33408,-0.027931,-0.25761,-0.41057,0.3546,0.81375,0.38011,0.71184,-0.74204,-0.3851,0.94127,-0.76773,-0.76766,0.048525,0.4311,-0.2066,-0.28305,-0.30856,0.53321,1.579,0.32915,-0.10446,-0.71661,-0.28314,-0.10452,0.32914,-0.15541,-0.079014,-0.64021,0.074149,1.273,0.8646,-0.56364,-0.79317,-0.69119,-0.35954,0.15059,0.45664,0.2527,1.1453,-0.76753,-0.41043,-0.94623,0.25245,-0.46169,0.53308,0.43118,-0.23198,-0.66565,0.4566,1.5279,0.12507,-1.4562,-0.69093,-0.66563,-1.2523,-0.66573,2.5227,1.2984,0.76267,-0.10455,0.17602,-1.2777,-1.2268,-0.92072,-1.0483,0.53315,1.2728,0.96669,0.099662,-0.84415,-0.10445,0.6097,-0.10446,-0.23205,0.22714,0.023035,-0.35959,-0.15544,-0.30858,0.22707,-0.23204,-0.23207,0.55874,0.60967,0.1506,0.023072,0.431,-0.002369,-1.1502,-0.41062,-0.10461,-0.86983,-0.027913,0.58422,0.81384,-0.3085,-0.23201,-0.12993,0.023114,-0.002546,0.45653,0.43114,0.12505,0.20155,-0.23197,2.5993,0.55869,-1.3543,-1.635,-1.1248,-0.8442,-0.2065,-0.002467,0.38016,0.12508,0.099619,0.45663,1.2983,0.45668,0.76296,-1.0736,-0.053611,0.022827,-0.76773,-0.10448,0.073995,0.89035,1.6555,-1.4564,-0.33402,-0.05336,0.099577,-0.38512,-0.2321,-0.53817,0.074106,-0.18093,-0.43607,-0.10444,1.1709,0.38013,0.32903,-0.053568,0.58419,-0.079045,-1.2268,-0.58913,-0.46157,1.5025,0.3802,0.53316,-0.13002,-0.35956,-1.5073,-1.2267,0.25253,0.099515,2.1401,0.48212,1.5024,-0.74212,-1.5583,-0.13009,0.45667,-0.53812,0.073989,0.30365,0.023065,-0.64014,1.1453,0.63523,1.2219,-1.1248,0.25258,-0.33404,-0.895,-0.28314,1.0685,-0.20663,-0.10433,-1.7114,0.48231,0.73737,-0.35948,0.2015,0.94111,-1.6859,-0.71668,0.32917,2.4718,-0.58908,-1.0738,-0.33418,0.43108,0.22706,-0.84422,0.072198,-0.05531,0.046696,0.072198,-0.05531,0.22521,-0.004307,0.1232,-0.25932,0.40372,-0.080812,0.0977,1.2217,1.4259,-0.71657,-0.002363,0.38016,-0.99718,-0.61457,0.78808,0.91559,0.17598,0.15049,-0.38503,-0.12986,-0.76748,0.78835,-0.28309,-0.13007,0.099491,0.17601,0.074057,-0.25749,-0.89526,0.58421,1.1454,-0.30848,-0.18111,-0.33405,0.22713,0.3036,-0.51272,-0.28309,0.22722,1.018,-0.41063,-1.2269,-0.99723,0.074044,0.81377,1.8849,0.71163,-1.7623,-0.99704,0.32904,0.66073,0.048531,0.12507,0.17603,-0.078984,-0.10444,-0.25741,0.20147,1.3746,0.22707,-0.35942,-0.97155,-0.48705,-0.97155,0.32908,0.43107,-0.51269,0.55863,1.4259,-0.41061,-1.0483,-0.51258,0.45669,0.074026,0.099608,-0.028023,-0.51253,0.43119,1.2219,-0.028011,0.32915,-0.97168,-0.81875,-0.28314,-0.13007,-0.053378,1.6553,0.45664,-2.5272,0.023059,1.1452,-0.028207,-0.23197,1.426,2.1656,-0.71659,-0.84423,-0.97168,-0.10463,-1.4817,-0.66553,1.6806,0.6605,-0.71646,-0.23188,0.12507,-0.41042,0.4311,-0.51258,0.1761,0.89028,-0.48705,-0.84422,-0.12998,0.99205,0.30363,0.35473,-0.3851,-1.1759,-0.002423,0.048708,-0.23203,0.048512,-0.64024,0.89029,0.73731,-0.002454,1.4005,-0.35956,-1.6094,-0.18111,0.68624,-0.25749,-0.10455,0.73706,-1.0481,-0.66545,1.2216,0.40558,0.32913,-1.4816,0.25254,1.0941,0.68617,-0.20644,0.048732,-0.61457,-1.0992,0.17619,0.02287,-0.23213,0.45664,0.22716,-0.002472,1.2985,1.7575,-0.23209,-1.7879,-0.84419,-1.2779,-0.13006,1.324,-0.56356,0.71161,0.15065,0.71179,0.68625,-0.10458,0.35462,-0.99724,0.074044,-0.81855,-0.33393,1.1451,0.278,-0.76754,0.048604,-0.6401,-0.18097,1.2726,1.3491,-0.35948,-1.5581,-0.94605,0.048549,0.55872,0.48204,0.35448,-0.12993,-1.4308,-1.0226,0.5076,-0.027925,0.53307,1.6554,0.55854,0.048604,-0.15551,-0.078972,0.89024,-0.86977,-1.0736,0.60982,-0.56366,-0.25754,-0.20646,0.40563,0.30365,-0.79323,1.6553,1.5025,0.71167,-1.8133,-1.0992,-0.053629,0.737,0.50765,-0.48696,0.099681,-0.20644,-0.43601,-1.6345,0.40555,1.2215,0.89011,0.4566,-0.51249,-0.23187,0.53315,-0.81862,0.074081,0.86479,-0.66572,0.27808,-0.079008,-0.25754,-0.002443,1.0179,-0.053451,-0.35956,0.20164,-0.28301,-1.4564,-0.30859,0.60968,-0.38497,-0.97168,0.45666,1.2219,2.6757,0.48216,-0.6911,0.45639,-0.20664,-2.6547,-0.97146,1.3493,0.30363,-0.18098,0.45653,-0.3086,0.25245,0.60952,0.38008,0.66072,-0.74202,-0.76756,-1.6093,0.78826,1.63,0.20163,-0.13002,-1.2523,0.50758,0.35451,-0.56368,0.30358,0.96699,-0.053372,-0.33404,1.0178,-0.10456,-0.79318,-0.64017,-0.64011,-0.385,0.20156,-0.6148,0.63518,0.91597,0.17622,0.48214,0.12502,0.55876,-0.5635,0.30339,1.1704,-1.5073,-1.2521,-0.76735,-0.33396,-0.18088,1.9867,0.81354,-1.4563,0.48213,1.0179,-0.74192,-0.35956,0.20149,-0.13001,-0.61456,-0.18097,-0.58913,-0.15549,1.1197,0.50768,-0.99706,0.27803,0.43108,1.222,-0.81871,-0.79319,-0.76768,0.43118,2.3187,-0.1811,-1.4309,-1.8133,-0.86971,-0.41065,-0.078966,1.375,1.885,0.53321,-0.64001,0.35452,0.37997,-1.0227,-0.89519,-0.69096,0.8393,-0.002405,0.25255,1.2725,0.63506,-0.97151,-1.405,0.71161,-0.89507,-0.33412,-0.027974,1.1963,0.40558,0.15051,-0.18101,-0.69107,0.022876,0.022986,-0.81864,0.4312,1.2984,0.7883,-0.18095,-1.1758,-1.0993,-0.13003,1.528,0.78834,-0.71659,-0.64017,-0.56366,-0.15559,-0.84427,1.4768,1.1199,0.63548,-0.15557,-0.41069,-0.10452,0.91583,-0.33391,-1.8131,-0.28297,0.94095,-0.20652,0.32906,-0.33393,1.6806,1.1706,-0.74198,-1.405,-0.15541,-0.71659,0.04858,0.7116,-0.02784,-0.18097,-0.1557,0.55862,1.0178,-0.23209,0.1251,-0.027809,0.32899,-0.23217,-1.3287,-0.92074,0.25257,1.0179,0.91578,0.27817,-1.2778,-1.0992,0.81377,2.0636,-1.3799,-0.13007,0.71175,-0.66525,0.86439,-1.7624,-0.51262,1.0687,0.50765,-0.053506,-1.0481,-0.7675,0.22706,0.12507,-0.46154,0.15043,1.2218,0.60985,0.32911,0.22696,-0.48702,-0.05347,-1.3798,-0.53802,0.02309,1.5278,-0.20648,-1.3543,-0.94626,0.12504,0.4312,-0.00232,0.73713,0.81376,-0.51257,-0.74223,-0.61469,-0.053495,0.55869,0.25263,-0.61464,0.8903,2.4973,0.53313,-2.3744,-0.33413,-0.18109,-0.25753,-0.97164,-0.35961,1.196,1.5788,0.048745,-0.3849,-0.71643,-0.81844,0.83914,-0.92069,-0.61461,0.22698,1.1706,-0.181,-0.81851,-0.33394,-1.0225,0.99215,1.5787,0.48209,-0.46153,-0.66554,-0.64007,0.32896,0.32922,0.22716,0.15064,0.55864,-0.94623,0.30362,-0.02798,1.0944,-1.0994,-1.2523,-0.5636,-0.283,-0.18102,0.60967,0.55869,1.0178,1.5535,0.43123,-0.028078,-0.43604,2.2931,-0.94617,-1.5584,-0.81868,-0.51267,-1.6091,-0.2065,1.1197,-0.25744,-0.56345,0.4056,0.55867,0.66067,0.53308,0.78807,-0.2065,-1.2776,0.81363,-0.053439,0.68601,-0.86963,-0.38491,-1.0227,0.27805,0.43114,-0.23202,-1.686,-0.74215,2.3953,3.7216,0.22704,-1.839,-1.2269,-0.89524,-1.0228,-0.43609,1.0178,0.89029,0.27814,-0.69106,0.30355,-0.5891,0.20165,0.30358,0.40572,-0.43595,1.9355,1.0176,-1.405,-1.4561,0.022937,0.66055,-0.79299,0.02301,0.17603,0.17607,1.2726,0.27808,-0.15537,0.89024,-1.3285,-0.4615,-0.46162,-0.002583,0.76266,0.12504,0.074062,-1.5329,-0.053495,2.5993,1.8086,-0.99718,-1.2014,-1.5074,0.43119,0.94129,-0.20648,-0.53815,-0.15563,-0.9207,-0.30856,0.12512,0.94122,-0.078935,-0.027871,0.32914,0.73717,2.1145,0.66066,-2.0427,-1.6348,-0.94615,0.048525,0.45652,-0.43609,1.5786,1.0176,-0.1809,-0.51247,-0.10448,-0.18098,0.048653,0.27808,-0.078966,-0.7931,0.35464,-0.18098,-0.25755,-0.23213,0.073959,0.81384,1.5026,0.278,0.20154,-0.538,-0.99735,-0.7422,-0.8187,-0.86965,0.8392,-0.18094,0.71177,0.71166,0.27809,-0.078879,-0.12998,-0.81876,-0.053495,-0.15538,0.45655,-0.15546,-0.71668,0.38011,0.32932,1.2472,0.40547,-0.18101,-0.69109,-0.56352,-0.86953,-0.028072,0.38,0.2782,1.0432,-0.84407,-0.3341,0.099448,0.38001,0.25277,1.222,-1.7113,-0.028042,0.35454,-0.5126,-0.64011,0.25266,2.2166,0.25265,0.023005,-0.58918,-1.6094,-0.74211,1.1963,1.5279,-0.46159,-0.078855,-0.079026,0.3035,-0.76759,0.20153,-1.0992,-0.20651,0.89023,0.53317,-0.81864,-0.053415,0.63521,1.8084,-0.20655,-0.41068,-0.078953,-0.078928,-0.76764,0.023023,0.099546,-0.3595,-1.0227,-0.66552,0.9922,0.45659,-0.56359,0.89016,0.45672,0.073977,-0.53796,-0.5892,0.48218,0.43116,-0.053464,0.35452,-0.43627,0.12508,-0.10447,0.45677,-0.20647,0.40571,-0.51267,-0.79314,-0.99726,-0.38502,0.17614,0.048458,0.17586,0.32923,2.7778,0.73738,-0.46155,-0.33413,-0.46176,-1.4051,0.48199,0.96674,-1.3541,-0.81871,-0.053537,0.43113,-0.92051,0.73702,0.60963,0.48214,0.76264,0.43109,-0.002412,-1.5836,-1.6347,0.17614,1.4256,0.32915,1.0944,-0.48708,-1.4307,-0.079124,-0.76767,0.40562,0.83934,1.1198,-0.20653,0.048536,-0.58915,-0.71668,-0.71666,-0.81872,-0.20642,1.681,1.2474,0.25256,-0.23205,0.45662,-0.63999,0.20146,-0.38499,0.12508,-1.5328,0.022968,-0.71663,0.7881,1.1197,-0.12997,-0.92056,-0.078984,1.5532,0.35465,-0.99706,0.15048,-0.30852,-1.15,0.20155,0.91559,0.20152,-0.46154,0.048518,0.53311,-0.76748,0.048518,-0.35953,-0.84409,0.78824,-0.38521,0.60971,1.1708,-0.1811,-0.66572,-0.41056,-0.84414,1.0689,0.63522,-0.53811,-0.58917,0.048549,1.0688,0.63532,-0.18108,-1.1757,0.78813,0.20158,-0.56357,-0.81855,0.15048,0.96655,-0.18098,0.15056,0.1506,0.40567,-0.79296,0.48203,-0.46151,-0.12996,-0.6656,0.38,0.30369,1.1452,0.25255,-0.33404,-0.079063,-1.1246,-0.33401,-0.18114,-0.66562,0.96682,2.3697,-0.3849,-0.30849,0.048463,-0.66572,-0.7422,-0.15556,-0.89526,-1.2779,1.4004,2.3698,1.7321,-0.92069,-0.97173,-0.18101,-0.43609,-0.18104,-0.053495,-0.58915,0.023005,0.78827,1.0434,0.09965,1.0941,0.45644,-2.5017,-1.9917,0.40558,2.2162,0.76258,-0.81852,-0.20646,-0.15549,0.73711,0.45658,-0.66559,-0.12991,-0.18094,-0.18102,-1.1247,-0.33399,0.60966,1.0688,-0.02806,-1.0227,0.94132,1.732,-0.48717,0.68622,-0.38506,-1.6094,-0.76771,0.66075,0.35463,-0.71659,-2.1706,0.78819,1.9616,0.76274,-0.078935,-1.3031,0.02301,0.76258,0.074062,-0.86962,-0.23196,1.5276,0.5585,-0.79297,-0.69094,-0.20646,0.17599,-0.027962,0.09957,0.023029,-0.002516,-0.30849,-0.283,2.2927,-0.46156,-0.33407,-1.2009,-0.027773,-0.30864,0.17609,-0.48706,0.6096,0.25259,-0.00254,0.58418,-0.56366,0.45669,0.55873,-0.027956,-0.38508,-1.2778,-0.66562,-0.053495,0.023059,0.1251,0.35462,1.2474,-0.2575,-0.81871,-0.30868,0.58428,0.99239,0.30349,0.176,-0.86964,-1.6092,0.66065,0.66075,0.58407,-0.15551,0.60955,0.60953,-0.20652,-1.2521,-1.0992,-0.38495,0.53326,0.66078,-0.10453,-0.46165,-0.23194,1.0432,-0.0535,-0.053513,-0.58913,-0.23204,-0.25754,0.17612,0.68623,0.53311,1.2984,-0.61446,-1.6603,0.22697,0.89019,-0.002448,-1.0228,-0.6657,0.38009,0.023145,0.15058,0.86466,-0.053549,0.27812,-0.97142,-0.56352,0.71153,0.45653,-1.1755,0.63509,0.7882,-0.51262,-0.71656,0.83915,0.73729,0.22708,0.55856,-0.48705,-0.9972,-1.2521,0.68598,0.71165,-0.28296,-0.94615,-0.002479,1.2728,0.074087,0.22708,0.22716,-1.2777,-0.66562,0.022986,0.58416,1.3239,1.2984,-0.053488,-1.3544,-0.7167,-0.053488,0.2271,0.4566,-0.43609,-0.028011,1.5281,-0.41057,0.048518,-1.4306,-0.71663,1.0685,0.63501,-0.5123,0.83924,0.76267,-0.76761,-1.4561,-0.25749,1.8592,0.099479,-0.53799,0.89013,1.1962,-1.5326,-1.2011,0.35465,0.60959,-0.64006,-0.76759,0.099454,0.45648,1.4258,1.7065,-1.1758,-0.51254,0.48216,-0.23209,-1.0481,-0.23197,-0.2065,0.45664,0.22712,-0.13001,-0.002472,-0.43606,-0.99732,0.58417,1.1708,-0.66569,-0.58911,0.15063,0.25262,0.43113,0.27815,-0.15545,-0.71668,0.27808,1.1707,-0.30846,-0.33387,-1.3796,0.55858,1.1706,0.12498,-0.053476,0.074008,0.96663,-0.028047,-0.66567,-0.71649,-0.18084,-0.86942,0.81349,-0.13,-0.92064,0.048531,0.02301,0.38016,0.099528,0.30354,0.83933,-0.027969,-0.7931,-0.35955,-0.30866,0.53313,1.63,-0.86973,-0.078898,0.099632,-1.1248,0.023023,0.074057,-0.15556,-0.079045,0.30353,-0.38495,-0.027913,-1.3543,2.0634,3.2115,-0.20652,-1.3288,-1.9918,-1.4053,-0.8951,1.3746,1.3492,-0.23197,-0.20646,0.074118,0.099473,-0.002436,0.099559,-0.48702,-0.13005,-0.002283,0.50785,1.1451,-0.13013,-0.12998,-0.35949,-0.48712,-0.74216,-0.12998,0.20155,0.12503,0.17611,-0.69103,-0.69121,-0.15556,0.73718,1.1964,1.1199,-0.002418,0.22713,0.2016,-0.86981,-0.97174,-0.56361,0.71168,-0.25756,-0.46149,-0.027871,-0.53797,0.66051,0.55854,0.48211,-0.81851,-0.43587,-0.10443,0.78798,0.55871,-0.028047,0.48199,0.6352,-1.507,-0.61449,0.25246,0.43098,0.25256,-0.76764,-0.74213,0.43118,-0.41044,0.91574,0.27814,-0.053513,-0.48708,-0.3341,-0.71666,0.58418,1.6555,-0.078984,-0.30861,-0.00257,0.4312,-1.0227,-0.35956,0.099546,0.68626,-0.66557,0.38014,0.09957,-0.002503,-0.30856,-0.15556,0.91575,0.48209,-1.9917,-0.002423,0.96666,0.176,1.6296,-1.1755,-1.456,0.71155,0.20143,0.55854,-0.10444,-0.4615,-0.33396,0.22702,0.12499,0.91559,-0.6656,-1.6601,-0.10447,0.15058,0.38011,0.023023,0.96684,2.1402,-0.053482,-0.84424,-1.1759,-1.0739,-2.0941,0.78829,2.4718,0.63524,-0.38504,-0.20651,-0.74219,-0.71666,0.15062,-0.05347,-1.8643,0.94118,1.1452,0.17607,-0.46156,-0.027809,1.2218,0.15054,-0.74216,0.12501,1.4768,-1.1501,-1.6092,-0.2066,0.60959,0.68605,0.3036,0.15049,-0.6145,-0.002461,0.32902,-0.20651,-0.15549,-0.63996,-0.078874,0.3545,0.30359,0.76282,0.15054,-0.51255,-0.64015,-0.61465,-0.15548,1.1709,0.17607,0.35456,-0.71673,-0.20655,0.76273,0.53314,-0.28301,-0.74211,0.58425,0.40576,-0.58913,-0.23215,0.17598,0.32904,0.17605,-1.0991,1.0687,1.3747,-0.20639,-1.0735,0.63501,-0.35951,-0.53798,-0.58894,-0.13,0.2015,1.0941,-0.078966,-0.66551,-0.43601,0.048531,-0.84426,0.1759,0.45664,0.89038,-0.2319,0.83907,-0.18106,-1.2522,-0.23207,-0.35963,1.2728,-0.48699,-0.41055,-0.6146,0.86467,1.1452,-0.43595,0.27837,0.25265,-0.53815,-0.9462,-0.79318,0.50742,0.78808,-0.28301,-0.81842,-0.35951,1.9615,0.89029,0.17618,0.35444,-0.64024,-1.0737,-0.48697,-0.38506,0.5332,0.5841,0.55853,-0.74208,-1.5326,1.3236,1.2727,-0.66547,-1.2776,-0.41044,-0.51248,1.6807,0.22711,-0.81863,-0.38507,0.4056,0.073965,-0.20638,0.86471,1.0942,-1.5583,-1.4052,0.81368,0.78824,-0.2066,-0.61472,0.12498,0.074136,-0.66548,0.76278,1.681,-0.61459,-1.0737,-0.028072,0.66062,0.022961,-2.4764,0.73718,3.2367,0.35458,-1.3032,-0.66554,-0.28311,-0.46151,-0.10454,1.2471,0.63512,-0.283,-0.23198,-0.742,-0.76753,1.1961,0.58405,-0.053433,-0.12997,-0.64009,0.074057,1.0178,0.35459,0.099583,-0.35958,-1.3542,-0.81861,-1.6861,0.20165,3.7726,1.1454,-1.2268,-0.74228,-0.56363,-0.48714,0.40559,0.15059,0.30364,-0.9207,1.1707,0.71193,-1.8386,-1.1502,-0.28307,0.023017,0.89007,1.7826,0.22704,-0.46148,-0.2066,0.53307,-0.002252,-1.5068,-0.1554,-0.6402,0.25252,0.48208,0.53304,0.074051,0.27801,-0.10452,-0.13004,-0.30854,-0.12997,-0.12998,-0.15547,-0.181,0.4567,-0.58918,1.3239,1.7321,0.43113,-0.61468,-0.89526,-1.0738,-0.79318,-0.15545,-0.61462,1.2219,1.222,0.099497,0.66042,-0.15557,-0.41033,-1.5836,-0.3086,-0.69103,-0.46147,1.4766,1.2726,0.074038,0.25263,-0.43595,0.17604,0.83912,0.35461,-1.0226,-0.94608,-0.48703,-0.487,-0.283,0.32906,0.073989,-0.28303,0.022925,0.86466,0.30351,0.60964,0.12511,-1.0736,0.12502,1.2219,0.94126,0.68627,-0.84416,-0.7932,-0.89523,-0.41061,-0.3851,-0.30851,-0.48706,0.074136,1.6809,0.17612,0.048458,-0.38496,0.2017,0.48194,0.12499,0.48209,0.58416,-0.64008,-1.6346,0.048604,0.32904,-0.10455,-0.053513,-0.56363,0.25265,1.0178,-0.027974,-0.53812,-0.1045,0.66064,0.15054,-0.33405,-0.027969,-0.181,-0.53802,0.55861,-0.078953,0.1251,0.53317,-0.66554,-0.76772,-0.74223,1.732,1.8851,-0.18106,-0.81876,-0.86967,0.074051,-0.64015,-0.30852,-0.15553,-0.66561,-0.38514,0.63522,0.4567,1.528,-0.25747,-0.28321,0.22698,-0.56337,-1.4051,0.15048,1.1961,-0.41051,-0.38499,-0.84409,0.27815,0.35464,0.66061,-0.58903,-0.38513,1.3492,0.68618,-0.23191,-0.86957,0.073977,0.20151,-0.56351,-0.71657,-0.13001,0.20152,0.43113,-0.053421,-0.56365,-0.18102,-0.027944,0.074209,0.38011,0.58415,1.3238,0.91571,-0.46159,-1.4054,-1.4052,-0.64015,0.63521,0.48213,-0.28303,0.20153,0.35458,0.78826,-0.7166,-0.23196,0.32917,0.30364,-0.58909,0.073965,0.25261,-0.79296,0.2525,0.6351,0.099552,0.22702,-0.28297,0.99216,-0.18101,-0.46159,-0.64003,-0.28302,-1.507,-0.078972,0.58414,0.58409,0.43106,0.27804,0.048512,-0.1045,-0.053402,0.45664,0.27812,-0.18102,-0.81861,-0.18101,0.83922,-0.84419,0.12509,-0.30854,-0.7422,1.9872,0.99229,-0.46162,-0.61467,-1.1248,-0.58919,-0.25759,0.2526,0.22715,-0.79294,-0.002461,0.66067,0.68622,0.94119,0.96668,-0.10445,0.35453,-0.74203,-0.99702,0.048561,-0.002521,0.37998,-0.79316,-0.15551,-0.66555,0.86455,-0.20649,-0.15534,-0.20635,0.50774,-0.76773,0.27805,1.4768,0.89012,-0.66556,-0.28305,-0.51262,-0.33396,-0.30848,0.099418,-0.078977,0.43128,0.99232,-0.30852,0.12501,-0.64006,-1.2267,0.17603,1.1708,0.17607,-0.92078,0.43106,0.58419,-0.48703,-1.2012,0.53326,1.1706,0.27806,-0.15541,-0.23192,-0.46157,-0.28303,-0.13004,0.38002,0.86469,0.1762,-0.33404,-0.43609,-0.027993,0.17614,-0.2065,-0.99715,-0.53805,0.8137,0.58416,-0.028066,0.048561,0.09954,0.048438,0.099491,-0.35953,-0.41031,-0.64006,0.048573,0.68615,1.3748,0.27814,-0.10443,-0.64015,-0.69122,-0.51263,-0.89515,0.048409,-0.002412,0.86479,-0.25745,-0.58916,0.58413,0.50778,0.3036,0.048494,-0.35953,-0.25749,0.099394,-0.23193,0.45669,0.66067,-0.51245,-0.35949,0.73698,-0.3851,-1.0481,0.022961,-0.20644,-0.002552,0.73711,0.7627,-0.053397,0.43126,-0.89498,-0.48717,0.53308,-0.12997,0.76264,-1.6093,-1.0482,0.63529,1.8085,0.81364,-0.69113,-1.0993,-0.027944,0.12512,-0.028005,-0.35956,-0.12999,0.96684,0.76278,-0.43609,0.04842,-0.079093,-0.41051,-0.92053,-0.10444,0.35461,0.48201,-0.35944,1.1451,0.32915,0.2271,-0.5126,-0.28304,-0.35963,-0.4616,-0.8439,-0.078953,-0.33404,0.53304,2.4713,-0.25745,-0.15547,-1.6092,-1.0992,-0.48694,1.6553,0.2781,0.48216,-0.79322,-0.20666,1.0686,0.023065,-0.48698,-0.69105,-0.43606,0.86489,0.58422,-0.10448,-0.28308,0.099534,-0.15553,-0.25754,-0.71672,-0.69121,1.1964,1.1963,-0.64012,0.27809,0.55874,-0.33408,-0.15552,-0.35958,-0.35956,-0.13002,0.15061,0.76264,-0.053421,-1.303,0.35456,0.30356,0.3291,-0.74203,0.2015,-0.33399,0.78811,1.1195,-0.053409,0.4567,-0.46154,-1.3031,0.48204,0.22712,-1.0481,0.25254,-0.4105,-0.48716,0.023005,0.89024,0.86474,-0.43613,0.40563,0.22707,0.074051,0.68627,0.099559,-0.79319,0.023096,-0.25751,-0.4871,-1.0228,-0.12998,0.48217,0.22709,0.8648,-0.002467,-0.53795,-0.20655,-0.58913,0.35465,1.9106,0.38005,-0.51262,-0.64013,-0.74203,-0.28302,-0.76755,2.3437,1.2216,-0.48697,-0.84401,-0.58898,-0.30851,-0.56344,-0.38497,0.38006,-0.028005,-0.30855,0.25257,0.73712,0.63512,-0.56359,-0.10443,0.074062,-0.5891,0.96685,0.7117,-1.6859,-0.5637,1.1198,0.38019,0.35465,-1.0738,-0.20647,-0.20655,0.30363,-0.4361,-0.6401,-0.51258,0.12507,1.4258,0.68619,-0.15537,0.17602,-0.48705,-1.2267,0.94112,1.7574,-0.15546,-2.3998,0.73702,-0.23202,-0.58908,-0.43603,0.27797,0.55857,0.73723,-0.2829,0.32904,-1.6347,0.023103,-0.12985,0.3035,0.35455,0.1505,0.66062,-1.5581,0.63501,0.91549,-0.43595,-0.02792,-0.10438,-0.41057,0.50769,-0.28304,-0.56368,0.32917,0.4822,-0.48712,0.25257,0.45664,0.27815,-0.41059,0.023065,0.50754,-0.64007,-1.1247,-0.58917,1.1453,0.55872,0.074087,-0.078923,-0.002405,-0.18104,0.5585,0.78812,-1.4305,-1.0736,1.4256,-0.10444,-0.56355,0.2015,0.63506,-0.20646,0.71171,0.022925,-1.048,-0.46152,0.22696,-0.28297,0.48231,-0.53801,0.78803,0.17603,-0.053488,0.2781,-0.23202,-0.079045,0.48214,-0.35953,0.22712,0.023072,-0.30858,-0.51258,-0.38509,0.32913,0.5332,0.50766,-0.41058,0.048543,-0.10455,0.48204,-0.89505,-2.1957,0.5841,0.76273,0.99215,0.20155,-0.41044,0.22704,1.6041,0.15053,-1.2775,0.20152,-0.15545,-1.3286,0.099521,-0.18101,-0.13004,0.30357,0.099546,-0.10449,0.73708,-1.099,0.17604,0.50766,0.35461,-0.20652,-0.76758,0.22707,0.63517,0.43113,-0.28308,-0.56364,-0.18103,-0.053488,-0.2575,-0.053476,0.53326,0.25258,0.074093,0.023029,-0.81866,0.73719,-0.51269,-0.30854,-0.79299,0.3037,0.8136,-0.28318,0.27805,-0.079021,-0.81846,1.6044,0.32896,-0.28299,-1.5579,-0.58905,1.349,0.81364,-1.0737,-0.18095,-0.20647,0.074062,0.048622,0.71172,0.2016,-0.35952,0.32895,-0.28322,-0.64011,-0.10439,0.43127,0.048598,0.12505,-0.13002,-0.81876,-0.23202,0.27811,0.12504,0.60975,0.35468,-0.35957,0.15049,0.1505,-0.002461,-0.691,-0.43599,0.78818,0.58412,-0.10451,-0.053513,0.58417,-0.86946,0.2015,-0.18109,-0.15556,-0.46157,0.53299,0.35473,1.4005,-0.89509,-0.79316,0.022956,0.15048,-0.94606,-0.053573,0.71158,0.15062,-0.10436,-0.48696,0.48204,0.25253,0.023065,-0.20652,-0.10449,0.40555,0.55869,-0.46147,-0.69107,0.91554,0.20156,-1.1502,-0.38492,0.32916,0.0741,1.0687,-0.79324,-1.3796,1.2729,1.0178,-0.66578,0.4565,-0.43602,-0.25756,-0.23203,-0.18105,-0.027993,-0.15547,0.09954,0.60961,1.8339,-1.2775,-0.86952,-0.74206,0.3546,1.1198,-0.10459,0.25247,0.32893,-0.18104,-0.8695,-0.053446,0.66055,0.35456,-0.10447,-0.66545,-1.2266,0.023121,0.63512,0.99216,0.27805,-0.53804,-0.53807,1.7062,-0.10449,-0.64012,-1.7879,0.53323,1.3751,0.15055,0.3801,0.58414,0.12501,-0.66569,-0.84424,-1.2013,-0.30854,0.023059,0.20163,0.55864,-0.10448,-0.33405,0.074124,0.58428,0.99227,0.25252,0.38003,-0.436,-0.18105,-1.0225,-1.0736,0.32901,0.83907,1.1196,0.17608,0.074087,-0.18095,0.30355,0.17601,-0.76757,-0.38495,0.27809,-0.64009,-0.30854,0.5331,0.99226,-0.35952,0.55869,-0.18093,-0.079063,-0.41062,0.12504,-0.74219,-0.079026,0.91586,1.2219,-0.10449,1.0434,-0.79319,-0.81868,-0.56365,-0.56362,0.27811,0.099577,0.43114,0.023005,0.27808,-0.94603,-0.2575,0.20158,0.55856,-0.66548,0.023145,0.78819,1.8591,0.48198,-0.71665,-0.43604,-0.94605,0.048659,-1.1245,0.45648,-0.35961,0.023194,-0.20645,-0.10455,0.22705,0.91571,0.15054,-0.25746,0.20153,0.4056,-0.71665,-0.41063,-0.18098,-0.15534,0.074026,-0.10449,0.71173,-0.18103,0.023017,-0.41057,-0.10449,-0.10451,0.60977,0.12504,-0.23204,-0.43609,0.55867,0.25268,-0.053335,0.30349,0.30343,-0.86958,-0.33405,-0.99702,2.2162,-0.99701,-0.35945,-0.079002,0.86464,-0.43601,-0.15548,0.68615,0.53313,-0.053446,-0.74207,-0.10447,0.96657,0.074013,-1.0737,-0.61446,0.60974,-0.66555,-0.64015,0.022901,1.6555,0.1251,-0.028005,0.278,0.43108,-0.58909,0.04858,-0.41061,-0.41054,-0.25751,-0.002472,0.12507,-0.2065,-0.232,0.63524,0.35459,0.048604,-0.86963,0.2526,0.55861,0.40561,0.4056,0.20153,-0.12999,-1.6857,0.43094,1.3491,0.35455,-1.4561,0.45661,-0.3339,-0.30843,-0.028018,0.17601,-0.10447,0.48207,0.3801,0.099559,0.30355,-0.027944,-0.66553,-0.30851,-0.181,0.55857,-0.64004,-0.181,-0.10449,1.0177,-0.078984,0.8393,0.048549,-0.20647,-0.027962,-0.43609,-0.58914,-0.33407,0.45666,-0.15551,-0.84411,0.25263,0.074051,0.22707,0.12501,-0.18106,-0.027969,0.43123,-0.20641,0.099442,0.27815,0.20167,0.60967,0.38006,-0.51262,-1.1502,-0.74217,-0.58905,0.78807,1.6552,0.073965,-0.94606,-0.6399,-1.048,0.12513,0.074179,0.58411,0.6351,0.71152,0.17603,0.02309,0.40571,-0.81853,-0.079033,0.048518,-0.28312,-0.30857,-0.46153,-0.13001,-0.002448,1.0688,0.83933,-0.33404,-0.30858,0.40566,-0.30858,-0.84419,-0.15553,-0.64015,-0.078972,0.27815,0.45667,0.17604,-0.079026,0.17606,0.32905,0.048555,-0.61449,-0.35956,-1.0226,0.96672,0.30371,0.865,0.71157,0.83894,-0.25767,-1.1757,-0.99713,0.048536,-0.35953,-0.25747,-0.2064,0.22704,1.1707,-0.79302,-0.07899,0.30364,0.30363,-0.05339,0.074069,-0.35968,0.048585,0.20154,0.048512,-0.12998,0.35468,-0.46167,-0.10453,-0.15559,0.074124,0.73742,0.32912,-0.92079,-0.28306,0.22703,0.12506,-0.3595,-0.18102,1.0433,0.35468,-0.61457,-0.43595,0.50758,0.55852,-0.79309,-0.56348,-0.15538,0.45651,0.73699,0.32909,-0.38495,-0.053525,-0.48708,0.71167,1.1963,-0.89505,-0.84404,-0.23202,0.35458,0.32905,0.55856,-0.15545,-0.053421,-0.18094,-0.38511,-0.18104,0.45668,0.12505,-0.00251,-0.3085,0.76273,1.579,-0.51265,-1.2013,0.25257,-0.64019,-0.51251,-0.74219,-0.35969,1.8851,1.426,-0.53809,-0.43616,-0.38511,-0.58905,-0.12987,0.99232,0.71173,-0.71674
-0.10449,0.074026,-0.15548,-0.002461,-0.053458,0.023054,0.048512,-0.027987,-0.053476,0.074044,0.074051,-0.10448,0.048531,-0.002448,-0.078977,0.074062,0.023047,0.17607,-0.181,-0.027969,-0.33405,0.07402,0.048561,0.25259,0.15057,-0.078966,0.12507,-0.2065,0.048536,-0.15548,-0.078984,0.023029,-0.079002,0.3291,-0.002454,0.048536,-0.25754,0.023023,-0.053451,0.12507,-0.35953,-0.002485,0.17608,0.023029,0.2781,-0.053464,0.25259,-0.027969,0.048531,-0.23202,-0.15549,0.023059,0.074051,0.074038,-0.18101,0.048531,-0.07899,0.15057,-0.2065,0.048543,-0.053488,0.12507,0.12506,0.074044,-0.15548,-0.027962,-0.002454,0.023047,0.048555,-0.23201,0.17606,-0.053488,0.15055,-0.12999,-0.027974,0.15057,-0.23203,0.023035,-0.002454,0.20158,0.023041,-0.13002,0.12505,-0.027944,0.20158,-0.078996,-0.07899,0.17607,-0.181,0.12507,-0.027962,0.12505,-0.078984,-0.027962,-0.07899,-0.027969,0.15057,-0.053482,-0.10447,0.023035,0.099552,0.048531,-0.053495,-0.20652,-0.027956,0.09957,0.45664,-0.027938,0.023023,-0.23201,0.12505,-0.027974,-0.078984,-0.027969,-0.053464,-0.10449,-0.10448,0.099546,0.048561,0.099546,-0.23202,0.20158,-0.002454,-0.002461,0.074057,-0.027969,0.12506,-0.002454,0.023029,-0.027962,-0.20653,-0.002485,-0.10449,-0.053476,0.074069,0.12507,-0.027974,0.048543,-0.078977,0.074057,-0.10448,-0.027987,-0.027969,0.22707,-0.053476,0.023047,-0.15549,0.12507,-0.02795,0.17607,-0.1555,0.099546,-0.20652,-0.078966,0.099534,0.17607,0.048536,0.023047,0.023041,-0.078984,-0.10447,-0.15548,0.048536,-0.07899,0.20156,-0.078996,-0.002479,0.048549,-0.078966,0.074033,-0.053464,0.023035,-0.12998,-0.002461,-0.002454,0.12505,-0.027962,-0.1045,-0.078959,-0.10449,0.074044,0.074057,0.023029,0.023041,-0.10449,-0.053476,0.048543,-0.002485,-0.027962,-0.10449,0.099564,-0.027969,-0.05347,-0.078977,0.20157,0.023054,0.023041,-0.078966,-0.079008,-0.002461,0.074038,-0.02798,-0.13001,-0.078972,0.12506,0.099564,0.15056,0.15056,-0.15549,-0.002454,-0.23201,0.099552,-0.053495,0.048549,-0.078984,0.048555,-0.002461,-0.18101,0.048555,-0.07899,0.15059,-0.078977,0.048518,0.048555,-0.002467,-0.027962,-0.30852,0.048543,0.32914,0.22708,0.048525,-0.20652,-0.13001,0.023054,0.074051,0.20157,-0.12998,0.074069,-0.13,-0.15551,0.15057,0.099564,0.20158,-0.12998,-0.002472,-0.053476,0.023023,-0.002454,-0.027974,-0.002436,-0.1045,-0.1045,-0.002467,0.15056,0.30363,-0.07899,0.074062,0.1761,-0.35956,-0.1045,-0.41057,-0.053525,-0.027962,0.048543,-0.10447,-0.10449,-0.15552,0.074033,0.63523,0.96686,0.048536,-0.4871,-0.15554,-0.79317,-0.027969,-0.53812,-0.10453,0.66069,0.27812,0.55866,-0.69111,-0.71662,0.20163,-0.13002,0.45663,0.30363,-0.078984,-0.28301,-0.33406,0.17606,0.12506,-0.079002,0.20158,-0.12997,-0.53812,0.023065,0.38011,0.38016,-0.43609,-0.33409,0.12506,0.60977,0.78827,0.07402,-0.48712,-0.84414,0.53319,0.58417,-0.86974,-0.3851,-0.61463,-0.10453,-0.053458,0.40565,-0.12997,-0.58913,0.63519,1.834,0.73721,-0.41052,-0.94605,-0.25754,-0.35964,-0.66566,0.12501,-0.3086,-0.15558,0.15059,0.32923,0.68624,0.12509,-0.25749,-0.81867,-0.94614,0.12504,0.71161,0.45666,-0.002485,-0.078972,-0.7422,0.63521,0.30364,1.477,-0.25755,-0.7167,-0.76761,-0.41059,-0.12997,-1.0228,-0.79321,1.426,0.60971,-0.69121,-0.079026,0.25276,2.293,-0.28313,-1.6348,-0.23196,0.023072,-1.5329,1.0944,1.1454,-0.33416,0.30355,1.4769,0.099559,-2.298,-1.6093,-0.69115,-0.18116,0.27812,1.0178,0.94119,0.15054,0.15051,-0.53793,-0.23187,1.5279,-0.10445,-0.41069,-0.10449,-0.027993,-0.30854,-1.3286,0.048567,-0.053519,0.40566,0.048366,0.71165,0.53326,0.58425,-0.41062,-0.3851,-0.64017,0.83936,-0.56361,-0.18103,-0.46159,-0.15551,-0.35957,-0.3851,-0.69114,1.885,1.5791,-0.15548,-0.027962,0.45656,-0.002546,-1.2524,-0.078966,0.30369,0.12528,-0.35951,-1.4308,0.25224,0.12498,1.0688,-0.43603,-0.4105,-0.28297,0.32902,-0.027987,0.35458,0.76269,-0.053397,0.20155,-0.51257,-0.33394,-0.23196,-0.2321,-0.86972,0.71174,-0.3341,2.1402,0.68624,-0.51263,-0.48705,-0.23215,-1.788,-1.3033,1.2219,-0.61447,-0.07907,0.91577,0.58423,0.53318,-0.61464,0.8138,-0.53809,-0.18108,-0.18104,-0.30851,-0.4361,-0.00243,0.40574,0.43117,1.2216,0.099454,-0.20644,-0.35953,-0.12993,-0.7423,1.1705,0.43134,-1.3794,-0.89522,2.2162,0.25278,0.68637,-1.1247,-1.8135,-0.9718,0.25252,0.45659,-0.56362,-0.43609,0.81378,0.83928,1.9106,2.6248,-0.35961,-0.33405,-1.8899,-0.97172,-0.74217,-0.56367,-0.38498,0.89031,0.55866,0.7627,0.022956,0.50759,-1.2521,-0.079008,-0.18103,-0.61456,0.021195,0.19971,0.48022,1.1964,0.25271,0.074087,1.4255,-0.84424,-1.0991,-0.41049,1.069,0.099619,-0.10448,-1.0992,-1.38,-0.30866,1.5788,1.5023,-0.94625,-0.89515,0.35464,-0.46148,0.27819,1.63,0.30353,-0.20657,-0.79312,-1.2778,-0.76772,-0.10446,0.023035,0.25257,-0.30856,1.0177,1.426,0.96683,0.63518,0.25259,-1.1501,-1.5838,-2.1705,1.3235,2.7009,-0.38493,-0.71658,0.12513,-1.8897,-0.79305,0.48203,-0.079118,0.48205,0.45681,1.3492,1.2217,-1.5838,-0.79302,0.66078,-0.10446,-0.027974,0.73715,0.40549,-0.79321,-0.74206,-1.2524,-0.30862,0.63534,0.91584,-0.15547,-0.76766,-0.30838,1.5023,0.329,-0.13009,0.15053,-0.23209,-1.4817,-0.69112,-0.20658,0.58409,0.76281,0.81387,-0.002503,-0.33406,-0.58915,0.30363,0.023108,-0.61445,1.2215,0.58408,0.43123,0.12501,-0.079039,-1.0991,-0.41058,0.68615,-0.79309,0.43104,-0.79309,0.15064,0.55871,0.099412,0.91576,0.25262,-0.25746,-0.69125,0.83927,1.3749,-0.99716,-0.66568,0.91573,-1.5075,-0.43606,-0.002363,0.32924,-0.078996,-0.20651,0.099466,0.22707,-0.86975,-0.1044,0.78824,1.732,-0.20653,0.48219,-0.28302,-0.89522,-1.5072,0.43089,1.7061,-0.71652,-0.89493,-1.0989,-0.25743,-0.35948,-0.23212,2.0887,1.0688,0.53314,0.40571,0.17617,-0.99714,-0.51265,-0.46166,-0.46156,0.023041,0.38016,-0.66585,0.66068,1.732,0.12525,-1.0481,-1.3798,-1.0227,0.17607,0.43116,0.76263,0.17604,1.1453,1.0433,-0.41062,-1.6348,-0.74218,1.0688,0.023084,0.048512,-0.18106,0.048463,-0.15554,0.89023,-2.1703,1.171,-1.1502,-0.43607,0.37998,0.27799,-0.64001,0.86466,0.66061,0.40561,-0.18097,-0.74194,0.12511,-0.00254,-0.58903,1.4001,1.1197,-0.66542,-0.20655,-0.1301,-1.4563,-0.18097,-0.81863,0.074149,0.8393,0.45658,0.43112,-0.56372,-0.58914,1.2984,-0.10447,0.074185,-0.6402,-0.028103,1.1963,-1.2267,0.35461,-0.12995,1.2474,-0.61466,-1.0226,-1.0736,-0.12989,1.2981,2.2672,0.32914,-0.71651,-0.23202,-0.92053,-1.5326,0.55859,0.76258,0.43106,0.074062,-0.10447,-0.2065,-0.027956,-0.43601,0.45655,0.278,-0.05347,-1.1756,0.68624,1.1453,-0.23205,-0.79318,-1.1248,-0.20663,1.1454,0.45668,0.0741,-0.3595,0.40566,-0.002503,0.023065,-0.20657,-0.4106,-0.71667,-0.13002,-0.64017,-2.0685,1.5023,2.7777,1.2476,-0.86948,-1.2778,-1.4564,2.4203,-0.79319,-0.7166,-0.20644,0.15056,-0.99688,-0.12993,0.66054,0.78807,-0.002467,-0.10451,-0.13001,0.96664,0.099442,-0.58905,-0.5888,0.048745,-0.053525,-0.56361,-0.4871,0.48203,-0.002491,-0.053451,0.45661,0.94112,-0.25755,-0.41049,-1.9152,0.48215,0.63512,0.96678,-0.20646,-0.10459,-0.61462,0.099632,0.89004,-0.94615,0.43118,-0.63999,-0.15557,0.023139,0.099564,0.022852,-0.86969,0.76271,0.63534,0.40588,0.32929,-0.10463,-0.028212,-1.0992,-1.2267,1.3746,0.22699,-0.33399,2.3437,0.15059,-1.6345,-0.86945,0.43129,-0.33401,-0.43598,0.15049,0.78808,-0.66564,0.15053,0.20152,-0.28305,0.22713,0.40561,0.048469,-1.0993,0.91586,0.63528,1.1454,-1.2523,-0.81868,0.50765,-0.53819,-1.2267,-0.64003,0.50765,-0.20664,0.27809,0.78823,1.528,-0.41049,0.20146,-0.02809,-1.0991,-0.64001,0.073953,0.78797,0.76261,-1.048,-0.027773,-0.027797,-0.28297,-0.15556,0.63509,0.60961,-0.4616,-1.4307,-0.53817,0.68617,1.8594,1.0433,-0.20649,-0.69117,-0.23208,-0.89523,-0.18095,0.1251,1.2472,-0.56359,-0.56353,-0.30838,0.1506,0.022992,-0.053519,-0.28305,0.38013,1.5025,0.96679,-0.69116,-0.58924,-0.3341,-0.92061,-0.69124,0.07402,1.0178,-0.002436,0.50763,-0.25747,-1.7623,-2.2467,3.4404,1.7829,-0.61446,-0.56349,-0.4361,0.37997,0.30364,-0.5126,-1.0226,1.1197,0.78824,-0.74211,0.38005,-0.46162,-0.92059,1.3748,0.48211,0.45676,-0.94605,0.023065,-0.76766,-0.76785,-0.002503,0.53321,0.38022,-0.18107,0.50766,0.60973,0.17604,0.30363,0.32911,-0.76768,-0.64017,-0.94622,0.22712,0.48214,0.32915,-0.12995,0.78821,0.099583,-0.66545,-0.89513,0.15045,-0.33407,0.099595,1.2725,0.3035,0.60971,0.94128,-0.46139,0.30369,-1.0991,-0.41064,0.45646,-0.89521,0.023096,-0.81855,-0.84402,1.0432,0.55855,0.35458,0.53321,0.1251,-0.46164,0.25272,-0.25759,-0.20657,1.2473,-0.97176,-1.5838,-0.81864,0.83924,1.4004,1.7065,-0.13002,-1.9919,-0.74228,-0.43619,0.20156,-0.10447,0.83924,0.40569,-0.10446,0.17616,0.71163,0.30364,-0.027962,-0.71656,-1.1501,1.6806,0.073946,-0.28304,-0.43605,-0.12996,0.3545,-0.53804,-0.43603,0.73719,0.099521,-0.76746,0.27821,0.074013,-0.079033,0.022974,0.17601,-0.61461,-0.13004,1.1707,0.023029,-0.86963,0.30374,0.32918,0.074216,0.22704,-0.38511,-0.13009,-0.43606,0.048531,-0.84434,-0.74212,0.25275,2.0382,0.48211,-0.35972,-0.33401,-1.4307,0.50761,-0.5124,-0.41047,0.48211,0.073886,-0.20661,0.96669,1.0178,-1.8132,-0.13004,0.55856,0.48218,0.78815,-0.53807,-1.7366,0.78824,0.25255,0.22696,-0.20667,-0.18103,0.023145,0.8393,0.9668,-0.28306,-0.84422,-0.35962,-0.66564,-1.0483,0.1506,1.0689,1.4514,-0.23209,-0.38502,-0.53807,-0.64011,0.22707,0.55868,0.074142,-0.23184,0.25248,-0.002717,0.83917,-0.38487,-0.53785,-0.97154,0.02301,0.91553,-0.25772,-0.46154,-0.002485,-0.25747,0.074002,0.048525,-0.84398,0.22718,0.71174,0.30363,0.22705,0.50752,-0.43601,-0.13006,-0.053464,0.38014,-0.4615,0.073855,0.76267,0.76283,-1.4817,-1.5583,0.048487,0.7118,0.38001,0.074033,0.022956,-0.43605,0.99235,0.66073,-0.81873,-0.20653,0.27808,-0.35958,-1.2011,0.78823,1.8848,-0.61463,-0.71659,-0.46144,1.1707,0.9922,-0.53814,-0.053513,-1.3032,-0.2575,0.68617,0.27807,0.30356,-0.9717,-0.25753,0.58444,2.9816,-0.30866,-1.0992,-0.99723,-0.48709,0.099491,0.048494,-0.15541,-0.79296,0.12499,0.32902,-0.43598,1.4768,0.83933,-0.48708,-1.0483,-0.23202,0.81378,0.35462,0.96689,-0.66564,-1.1503,-0.84422,0.023023,0.048543,0.1761,-0.5891,1.0432,0.45654,-0.10457,-0.84407,-0.56347,-0.61426,0.96686,0.22706,1.0431,0.96651,0.89002,-0.84408,-1.0991,0.20144,-0.25769,-0.23191,-0.20623,-0.027895,0.60985,-0.6146,-0.35962,0.073946,-0.079179,-0.64012,0.22723,-0.28297,0.68624,-0.07907,0.048512,0.4311,0.35456,0.30356,0.1251,-0.6146,-0.38506,-0.10445,0.20171,0.86481,-0.002448,0.12494,-1.0484,-0.30839,0.023255,0.12503,0.22699,-0.33408,-0.7167,0.60974,1.4258,-0.18102,-0.25748,-1.0992,0.048518,0.45664,-0.61443,0.96674,1.5276,-0.56355,-1.4307,-0.25745,0.40561,0.27798,0.38016,-0.33407,-0.13002,-0.28295,-0.20644,0.50765,0.45666,0.023047,-1.0992,0.32904,-0.18107,0.25257,-0.58912,-0.3851,0.76277,0.71176,1.0433,0.38022,-0.33415,-0.25749,-0.38506,-1.3799,-1.0228,-0.027974,0.17612,0.66071,2.0637,0.048531,-0.30861,-0.053464,-0.38514,-0.51248,-1.7111,-0.48699,0.63497,0.53301,0.91572,1.0432,0.43107,0.43115,-0.58901,-1.4307,-0.71663,0.40555,-0.48704,0.048531,-0.053506,-1.2266,-0.51245,1.2983,0.8136,0.50754,-0.5127,0.125,1.3494,1.0944,-0.56359,-0.97172,0.48225,-0.89524,-1.3033,1.2984,-0.2575,-0.18101,-0.43613,-0.30861,-0.43613,-0.078966,-0.13,0.83931,1.681,2.4208,-1.3033,-0.079045,0.35454,-0.20652,-1.2012,0.40551,-0.81851,-0.18101,0.73693,0.38002,0.53317,-0.6656,-1.0991,0.3291,0.43129,-1.4051,0.40549,0.20146,0.99221,-0.33385,-1.8389,0.55857,3.7978,0.55864,-1.9408,-0.23203,-0.6146,-0.079008,-0.12999,0.048555,0.099686,-0.20658,-0.38517,-0.92068,0.40569,2.0892,0.023078,-0.74219,-0.35961,-0.053531,-0.35954,0.53325,1.2473,1.0433,-1.4563,-0.53813,0.83901,-0.33399,0.48208,0.32904,-2.0171,-2.4506,2.1397,0.7116,-0.07899,0.17613,0.074044,0.099491,-0.23201,0.074069,-0.002454,-0.38508,-0.71657,0.53319,0.48213,0.30356,-0.30861,0.12512,0.99234,0.048647,-0.84414,-0.3851,-0.69115,-0.28309,0.25256,0.68622,-0.58921,0.32915,1.8341,-0.20649,-1.1758,1.2728,-0.74219,-0.38506,0.15057,-0.69106,-1.0482,1.0687,0.94122,-0.53795,-0.69101,-0.28293,0.53305,0.91561,0.63507,0.482,-0.71651,-0.078984,-0.94605,-0.51251,-0.079008,-0.078941,-0.079033,-0.079014,0.17604,0.63514,0.023047,-0.53795,0.022925,0.12482,1.1709,0.43132,-0.89517,-0.2065,-0.64007,-0.43604,-0.078953,1.6046,-0.25758,-1.0994,-0.97176,0.2526,1.273,0.60973,-0.23206,-0.64011,-1.0993,0.78813,1.171,0.12502,0.30363,-0.89497,-1.1756,0.53302,0.53298,-0.46152,0.35479,1.0432,1.1961,-0.56358,-1.1756,-1.2776,0.329,-0.30856,-0.20652,0.45665,0.58416,0.6606,0.17603,-0.86952,-0.027974,-0.30858,-0.15549,-0.079008,1.2729,0.15062,-0.86962,-0.30856,1.6807,-0.7932,-0.92069,0.40573,0.91593,-0.71666,-0.81875,0.048494,0.25265,0.25274,-0.89516,0.38007,-0.23216,1.0942,0.94131,0.02301,-1.2521,0.17605,0.45649,-0.51267,-0.66555,0.55864,0.38018,-0.30838,1.2218,-0.35961,-0.94619,-0.053464,0.27812,0.30353,-0.41058,-0.61455,-0.69105,0.30349,1.5022,-0.38503,-1.099,-0.053329,1.4004,-0.10436,0.1503,0.86448,-0.41047,0.27828,-0.97174,-0.13003,-0.64015,-0.10447,-0.6911,0.38017,0.83922,0.35458,-0.10452,0.12509,-0.10448,-0.51266,0.30364,-0.7167,0.78817,0.048616,0.86475,-0.92051,-0.63995,-0.10452,0.073917,-0.58921,0.073977,1.6552,0.78819,-0.053476,-0.7931,-1.5072,-1.7876,1.2217,2.2419,0.30352,-0.61464,-0.002497,-0.027864,-0.4614,-0.18104,0.584,-0.028096,-0.99722,0.12512,0.76288,0.023139,-0.28308,-0.10463,0.12504,-1.2521,0.2526,0.89021,0.17604,-0.86963,0.63512,-0.84426,0.022852,0.94122,1.5536,-0.002289,-0.66547,-1.0227,-1.5328,0.76243,0.71154,-0.46148,-0.89482,1.1708,0.2781,0.35451,-0.2066,0.32904,0.27805,0.12514,-0.18093,-0.64009,0.25265,0.15059,0.12512,-0.41054,-0.74209,0.12499,-0.10452,0.12503,-0.12998,-0.74226,0.96665,3.2368,1.1455,-1.1245,-1.4307,-0.69111,-0.002711,-0.33422,-0.33413,-0.84412,0.048683,-0.30856,1.5023,1.6044,0.94111,-2.4764,-0.002374,0.81378,2.2676,-0.74212,-1.3797,-2.8078,0.68597,0.66048,-0.30856,0.48199,0.04842,0.25265,0.40567,0.25261,0.63536,-0.027895,-0.48705,-0.33405,-0.38506,-0.13007,0.38006,-0.079002,-0.46158,0.3547,-0.66549,1.0431,0.02298,1.0179,0.02309,-1.5582,-1.0992,0.68614,0.60967,0.15058,0.12505,0.22702,-0.33411,0.25259,0.048525,-0.7676,-0.84406,0.71165,1.3239,0.35462,-0.30858,0.023121,-0.18086,0.1504,-0.30854,-0.1045,0.12502,1.7827,-0.71656,-1.4306,-0.81855,-0.02798,0.048458,0.43115,0.20164,-0.28311,0.50768,0.66075,0.68606,-0.41057,-0.81875,-0.53809,0.76261,0.048794,0.30353,0.30354,-0.76764,-0.89512,0.50785,0.20163,-0.51256,-0.00254,0.22699,-0.86973,0.30366,0.58414,0.53315,-0.2321,-0.64008,-0.43604,-0.079008,0.27809,0.63512,0.45661,-0.64001,-1.5581,0.66063,1.0687,0.20166,1.0943,1.0431,-0.53821,-0.81857,-1.3795,0.27789,0.89006,-0.23207,-0.53798,-0.97147,-0.15556,0.048476,0.38009,0.48209,-0.079039,-0.94617,1.2219,1.8086,0.22708,-0.38519,-0.71663,-0.71676,-0.58913,-0.51254,0.63511,0.71177,-0.10436,-0.53806,0.04861,0.32915,-0.07899,0.89015,-0.48713,-1.1758,-0.053476,0.81381,-0.74206,-0.61454,0.048549,0.96655,0.12502,0.22706,1.0432,-0.12991,-1.8388,0.20158,0.30363,-0.38489,-0.3595,1.2471,0.66052,-0.61459,-0.35959,-0.027907,0.8138,-0.25753,-0.92063,0.35453,0.45669,-0.28309,-0.028036,-0.28316,-0.002345,0.89046,0.58425,-0.84414,-0.69122,-0.15555,-0.33406,-0.58919,1.0943,0.7117,0.6352,1.1709,-0.99721,-0.15554,-0.33404,-1.3544,-0.25753,0.99232,-0.078843,-1.0227,1.553,0.53293,-0.30851,-1.3795,1.0688,0.2526,1.1453,-0.30855,-1.2777,-0.69107,-0.25753,0.50752,0.78813,-0.2829,0.30356,0.023017,-0.30861,0.60965,-0.58894,-0.71642,0.63514,1.1195,-0.41062,-0.23201,-0.38499,-1.4307,0.66058,1.0943,0.22715,-0.79313,-0.46155,-0.46152,1.375,0.83919,-0.30863,-0.74225,0.30364,-0.53816,-0.41056,-0.33411,0.15055,0.83925,0.99239,-1.5328,-0.38508,0.7627,0.58425,0.73716,0.22701,-1.2267,-0.4871,-1.1246,0.329,0.60962,0.099559,0.40561,1.2727,0.023084,-0.20652,-0.7421,0.15064,0.40582,-0.86957,-1.3797,0.76242,0.89009,0.099613,-0.86955,-0.10445,-0.002461,0.17598,0.53307,0.12497,-0.35954,1.3238,-0.1045,-0.20653,2.1148,-0.81868,-0.81862,-0.48714,-1.1758,-0.35954,-0.385,0.023121,-0.15548,-0.23208,0.63506,1.0177,0.53305,-0.12993,-0.46142,-0.20653,-1.7877,1.0177,0.55847,0.22715,1.9615,1.4514,-0.53826,-1.4051,-0.92061,0.20149,-0.23213,-1.4562,-1.3031,0.99204,1.1196,-0.51242,-0.078861,-0.28307,0.9412,0.86476,-0.12994,-0.38494,0.22698,-0.38513,0.30349,-0.38502,-0.28286,0.27826,-0.20658,-0.48714,1.0687,0.15059,-0.56363,-0.97172,-0.23203,1.2984,0.55873,-0.25754,-0.61468,0.20163,-0.002363,0.073971,0.38011,-0.51251,-0.3595,-0.18097,-0.58901,0.48203,0.96654,-0.23196,0.94115,-0.10449,-0.63997,-0.23194,-0.027969,-0.20652,0.15043,-0.1301,-0.46147,-0.43585,-0.25746,-0.23202,0.073989,-0.002546,0.45664,0.48219,0.17606,0.022883,-0.35961,1.069,0.27825,-1.3031,-0.35975,0.96665,1.0432,0.25259,-0.8187,-0.43609,-0.51259,-0.41054,-0.38497,-0.027987,0.40571,-0.48707,0.55872,0.43121,0.71181,-0.35966,-0.46164,0.66065,-0.079088,-0.51255,-1.0991,1.2726,0.15056,-0.18094,-0.43595,-0.84398,-1.252,0.40546,0.76261,0.83914,-0.43601,0.0485,0.81366,0.27804,-0.18095,-0.25747,-1.0226,-1.099,0.40553,1.6551,-0.23206,-1.1501,-0.5125,-0.41054,0.023188,1.0177,0.35454,-0.48713,0.76269,1.9616,-0.74221,-0.99726,-0.86975,-0.28301,0.27816,-0.43612,-0.33403,-1.3796,0.53308,1.0943,0.91575,-0.078812,0.2781,0.58413,0.30353,-0.10452,-0.64007,1.2726,-0.71652,0.30346,-1.3031,-0.41055,0.20158,-0.25749,0.074044,-0.487,0.38005,0.55859,0.27803,-0.76756,0.60971,0.30369,0.45661,0.048506,-0.64011,-0.51265,0.023005,0.30359,-0.20643,-0.28307,0.20155,-0.56366,1.1709,3.0585,-0.71666,-1.0991,0.50767,-0.76776,-0.79322,-0.6147,-1.2777,0.35455,0.6861,-0.28298,0.55869,0.35477,0.86469,-1.4051,0.25257,-0.53801,0.66054,0.099564,0.99217,0.43101,0.17605,-0.51254,-1.0736,-1.3796,0.4311,0.68616,1.502,-0.20646,-0.538,-0.33399,-0.3595,-0.283,-0.56362,0.099497,-0.078947,0.76272,1.1454,0.68622,-0.69116,-0.41057,0.099466,-0.61458,0.7117,1.8339,0.78835,-0.64008,-1.1248,-0.69121,-0.97168,0.022998,0.40559,0.40558,-0.15531,-0.94609,-0.28289,0.58416,0.83925,0.48211,0.63502,0.22682,-0.86964,-0.18087,1.0433,0.50768,-0.56359,-0.86963,-0.13001,-0.35958,-0.13,-0.48699,-0.97146,-0.23203,0.76256,1.0177,-0.027938,0.63512,-1.0226,0.55862,1.2471,0.30357,0.099577,-0.078935,-0.41052,-1.1247,-0.25753,0.83916,-0.002497,-0.53802,-1.1502,-0.334,0.71178,1.6809,1.2474,-1.1503,-0.94628,0.55861,0.17612,-0.18098,-0.002412,-0.028054,-0.41064,0.58406,-0.8951,0.38029,-0.078806,-1.15,-0.35956,0.78802,1.7061,1.1961,0.20163,-0.74194,-1.3031,-0.13002,-0.20655,-0.18099,0.074087,-0.58907,0.22709,0.12508,1.0177,-1.354,1.3746,-0.053592,-0.38498,-0.078972,0.15052,0.35453,0.022974,-0.58908,0.048708,0.15065,-0.38503,0.099406,0.58425,-0.10443,0.71184,-0.28308,-1.0227,-0.97178,0.022913,-0.25766,-0.13005,0.27813,-0.66549,0.66085,0.86471,-0.25747,-0.23198,1.9358,-0.078947,-0.74204,-0.89511,0.48201,1.4256,-0.18097,-0.56353,-1.3031,0.53302,-0.334,-0.053433,-0.027956,0.15056,0.023035,-0.41047,0.45657,0.27808,0.048561,-0.38502,-0.028054,0.71171,0.60972,-0.48703,-1.0737,0.048487,0.53302,0.63511,-0.053439,-0.12997,-0.51256,-1.4053,0.15047,1.1452,0.099564,0.50781,-0.84384,-0.20648,0.15045,0.91571,0.12513,-0.89516,-0.2577,0.048438,-0.20655,-0.38492,0.78808,-0.02809,0.30376,-0.10428,-0.02792,0.40551,0.17601,-0.38495,0.17602,-0.053495,-0.30851,0.048518,0.30353,-0.027987,-0.76755,-0.35951,0.07402,0.78816,-0.41049,0.78811,0.38006,-0.25749,-0.58903,0.27802,-0.81872,-0.33399,0.17616,0.81375,0.66072,0.45665,0.17598,-0.69101,-0.89517,-0.84426,-0.33412,0.32902,0.09957,0.022998,-0.76769,0.27809,0.89046,0.55891,0.38011,-0.33409,0.96652,0.73703,-0.53803,-0.92058,-0.64004,0.22702,0.55854,0.023054,0.45657,-0.53803,-0.74204,-0.35945,-0.027895,0.3801,0.38001,0.58416,-0.35957,-0.18098,0.686,-0.181,-0.43607,-0.43608,0.27811,1.0434,0.63523,-0.51249,-2.1193,0.50762,1.4004,0.048427,-0.86969,-0.46164,-0.053506,-0.48711,-0.15553,0.099559,0.25257,0.22706,1.1198,0.50769,0.68627,-0.92043,-0.94614,-0.92062,1.2471,0.89007,0.099552,-0.81862,-0.92062,0.55855,-0.25754,0.27803,0.43106,-0.89499,-0.10445,0.074087,0.48214,-0.079008,-0.053495,0.048555,-0.23197,1.1197,0.25265,0.32901,-0.43606,-0.94612,-0.3085,0.048573,-0.23201,-0.58914,-0.46162,0.58421,1.477,1.4769,-0.58922,-1.3289,-0.41066,-0.6401,-0.027901,-0.15532,0.27813,-0.38505,0.15059,1.2982,0.32902,0.12499,-0.15551,-1.5581,0.40567,1.4259,-0.13,0.68599,0.20146,-1.0481,-1.5326,-0.46156,-0.25753,0.68621,0.76267,-0.48703,-0.053495,0.48209,0.22705,-0.053476,-0.10453,0.20153,0.3801,-0.35939,0.22712,-0.079014,-0.1045,-0.3851,-0.18101,0.25259,0.20164,-0.69122,0.099637,0.58421,0.7117,0.43102,-0.81852,-0.30849,0.023065,-0.10453,-0.283,0.533,0.91556,-0.18116,-2.527,0.60969,2.0888,0.07402,-0.23197,-0.53805,-0.56349,-0.6656,0.53302,-0.35953,0.71154,0.68608,0.15065,-0.23186,-1.15,-0.66561,0.3036,-0.002412,0.32908,0.38002,0.22702,0.27808,0.15053,-0.28304,-0.48706,-0.41058,0.73718,-0.43604,0.22713,0.45676,-0.53788,-0.232,-0.1811,-0.15555,-0.30864,-0.15557,0.074038,0.35461,-0.078972,1.2219,1.9362,-0.53806,0.94089,-1.7113,-1.0227,0.099503,-0.79295,-1.0226,0.94107,0.83909,-0.10445,0.27805,0.86477,0.074062,0.38006,0.50762,-0.86953,-0.38503,-0.6146,-0.078972,-0.35945,0.20152,0.278,-0.30852,0.30356,-0.41058,-0.078861,0.40555,-0.35959,0.5077,0.48214,-0.35957,0.12504,0.89033,-0.07899,-0.74218,-1.0738,-0.20653,1.4259,0.96673,-2.4,-1.099,0.99239,1.6299,-0.079112,0.07394,0.37998,-0.58906,-0.76751,0.40551,-0.18095,1.1706,0.27814,-0.84402,-0.66552,1.2472,-0.15545,-0.20644,0.45664,-0.28303,-0.41055,-0.10458,0.074026,0.12504,-0.053495,-0.13,-0.02792,0.58413,-0.13,-0.38499,0.074062,0.22707,0.45667,-0.7167,-0.86974,0.074038,0.78829,1.2729,0.17609,-0.15551,-0.69113,-0.76766,0.5332,-0.71669,-0.84421,-0.15554,1.6043,0.6097,-0.25736,-1.0991,0.12509,0.91554,-0.94608,0.43103,-0.002607,0.15054,-0.61438,-0.43595,1.0176,0.91558,0.02301,-0.71651,-1.1501,-0.15551,0.48209,0.22699,-0.027895,0.25259,-0.13004,-0.38505,-0.053458,-0.053421,0.023005,-0.027998,-0.28308,-0.41063,0.07402,0.96698,1.8851,0.022937,-0.86965,-0.2065,-0.97177,-0.46163,0.20159,0.38014,-0.35957,0.43116,-0.28306,-0.15556,-0.81849,-0.10449,1.1963,1.7064,-0.3086,-0.9463,-0.71642,0.63525,-0.2065,0.3034,-0.15553,0.50754,-0.61453,-0.10456,0.3801,-0.38493,0.66075,-0.25746,-0.13,-0.79304,0.0485,-0.079021,0.15049,0.43107,0.55855,0.15065,-0.30848,-0.94614,-0.33409,1.0178,0.43115,0.27812,-0.33407,-0.84425,0.048555,0.68635,-0.12993,-0.51264,-0.18107,-0.30858,0.023029,0.66067,-0.18094,-0.13002,0.38012,-0.25754,0.074087,-0.61454,0.91555,0.38011,-1.3285,0.048622,2.038,0.53307,-0.61467,-0.79313,-0.10454,0.17603,-0.10449,-0.64007,-0.487,-0.002467,1.3238,0.048561,-0.56361,-0.10452,-0.28304,0.04858,-0.33404,0.91573,0.15054,-0.69111,-0.79307,-0.46159,1.4258,1.1963,-0.53801,0.074051,-0.027969,0.50768,-0.53807,-1.4819,-0.94624,0.074008,1.4515,0.35473,-0.38519,-0.00243,0.63505,-1.9917,-0.18098,1.2218,1.0432,-0.027956,-1.8896,1.1451,-0.283,0.40551,-0.10449,-0.027913,-0.63999,0.76262,1.1453,0.48216,-0.38511,-0.99717,-0.3595,-0.38513,-0.2066,-0.15537,0.83931,0.68613,0.17606,-0.58915,-0.25749,-0.92076,-0.28302,-0.053513,1.4515,1.4005,-0.12998,-0.46162,-0.3851,-0.97177,-0.30857,-0.38511,-0.7677,0.25265,1.426,-0.15551,0.86472,0.27806,0.63518,-1.3286,-0.18119,-0.33401,-0.12996,-0.43598,0.38018,1.2216,0.53299,-0.23207,-0.61454,-0.48705,0.20155,0.12517,-0.053409,0.023005,0.12514,-0.15548,-0.002479,0.50757,0.35455,0.32926,-0.8696,-0.33407,-0.58922,-0.99718,1.1964,1.9613,0.48222,-0.64021,-1.0737,-0.33398,-0.23194,0.023059,0.43121,0.023017,-0.20656,-0.13005,-0.28302,0.20164,-0.13,-0.028042,0.83926,-0.079081,0.048585,0.023029,0.12497,-1.2776,-0.25733,-0.15535,-0.002565,0.45655,-0.002405,0.68608,0.43093,0.55852,-0.35947,-0.18104,-1.0225,-1.15,-0.25745,0.53306,0.27812,0.4821,0.40553,-0.027998,-0.002394,-0.25756,0.099515,0.45663,-0.99715,0.07416,2.0126,0.15048,-0.89525,-0.92074,0.66069,-0.53812,-0.64007,-0.71662,0.099613,-0.053519,0.50767,0.83925,0.22716,-0.028011,0.55866,-0.5126,-0.13002,-0.15548,0.074044,0.45665,0.048585,0.048463,-0.18105,-0.66569,0.50763,0.4312,0.023133,-2.5527,0.15051,0.048445,-0.10452,1.7827,0.89005,-1.0736,-0.92051,0.78819,-0.41057,-0.5637,0.83925,1.1199,-0.20647,-0.30855,-1.2012,-0.33402,-0.41061,-0.64019,0.4822,1.6809,0.86482,-1.9153,-0.30865,0.66064,0.7372,-0.079057,-1.1247,-0.028078,-0.99714,-0.053384,0.73728,0.6096,0.20151,0.048678,0.60967,0.099559,-0.12999,-0.58901,0.27796,0.22705,-0.33402,-0.43602,-0.5891,0.71158,0.27806,0.76263,-0.76757,-0.71663,0.17612,0.43122,0.55875,-0.38516,-0.079002,-0.053513,-0.86952,0.07402,0.022986,0.30356,0.6352,-0.53812,0.09957,0.3036,-0.053427,-0.86969,-0.002443,1.2728,0.15052,0.1251,-1.3287,-0.99709,-0.28311,-0.1046,-0.00257,0.9668,1.2473,-0.89509,0.1761,-0.18094,0.074044,0.15059,-0.53807,-0.20653,1.0687,0.55856,-0.43607,-0.181,-0.538,-0.99704,-0.20646,-0.33395,-0.35947,1.2216,1.8591,0.32909,-0.64001,-0.58896,-0.10444,0.12505,-0.7165,0.3036,-0.028072,0.07402,-0.053488,0.63511,0.76272,-0.53812,-0.02798,-0.33406,-1.1758,0.099632,1.5025,0.7372,-0.20658,-0.3086,-1.2012,0.099632,-0.10444,-0.25763,-0.5381,0.099528,0.2015,0.25256,0.50771,-0.00251,0.023163,0.63521,-0.078953,0.5587,0.78811,-0.2321,-0.20661,-0.38508,-0.97162,0.17602,-0.81866,-0.56351,0.55884,-0.002387,-0.41042,-0.12993,0.12499,0.38,0.048415,-0.61472,0.89023,1.0178,0.91562,-0.69109,-0.89515,-0.58921,0.048592,0.94133,-0.487,-0.25747,-0.94617,0.76265,0.12509,-0.053476,-0.25756,0.50768,-0.1555,-0.28308,-1.1248,0.71176,1.834,0.43113,-0.283,-0.20656,-0.53817,-1.1501,-1.4816,-2.1192,1.4002,1.6296,1.9612,0.30362,0.60973,0.09957,-0.38503,-0.71656,0.1251,0.25276,-1.2266,-0.15548,-0.053427,-1.4307,-0.6401,1.0176,0.7625,-0.25749,0.50763,0.12496,0.17612,0.45653,1.1961,0.22719,-0.053293,-1.3797,-1.5328,0.68632,1.6556,-0.48711,-0.43612,-0.25757,-0.84424,-0.079021,0.50762,-0.10452,-0.05347,0.09954,0.27815,0.073892,-0.20632,0.15062,0.96677,-0.58903,0.09943,-0.43606,-2.0938,-0.43593,1.8339
-0.35953,0.023035,0.27812,0.43113,-0.12998,-0.20656,-0.30855,-0.20651,-0.18097,0.17609,0.074044,0.12508,0.074038,-0.027956,0.099534,-0.002461,0.023029,0.023059,0.023035,-0.1045,-0.13,-0.078996,0.12507,-0.10449,0.099564,0.023047,0.12507,-0.027993,-0.053458,-0.002485,0.023041,-0.053482,-0.12998,-0.053482,0.099552,0.17606,0.09954,0.099577,-0.10447,-0.15546,-0.028005,0.12506,0.12504,0.074062,-0.13002,-0.10447,-0.002461,-0.053458,-0.027956,0.20157,-0.13,-0.078984,-0.078959,0.12504,0.17609,0.09954,-0.15549,0.023029,-0.13001,0.023035,-0.002454,0.099588,0.15058,0.048561,-0.028005,-0.20653,-0.053495,-0.20653,-0.027969,0.2526,0.074062,0.023017,-0.13001,-0.027956,0.15056,0.30363,0.048536,-0.25753,-0.078972,0.023041,0.15059,0.023017,-0.027974,0.023035,0.099577,-0.10448,-0.12999,-0.053476,-0.15553,-0.002461,0.023035,0.12509,0.099528,-0.078996,0.023041,-0.15549,-0.10446,0.048531,-0.078972,-0.002467,-0.002461,0.048555,-0.002461,0.074057,-0.002467,0.12507,-0.002479,-0.078972,0.023035,-0.15551,0.023041,0.048512,-0.078972,0.074008,-0.002461,-0.078959,-0.053439,0.023023,0.048543,-0.053488,-0.002443,0.048536,-0.12999,-0.078984,0.12505,0.099552,-0.10449,-0.027944,0.023029,0.023059,0.023029,0.023054,-0.20652,-0.027962,-0.002479,-0.078972,-0.027974,0.048536,0.023072,-0.078996,-0.002467,0.023035,-0.078972,-0.15548,0.25257,0.25259,0.023023,-0.23199,-0.15551,-0.079008,-0.002461,0.074044,0.17609,0.074062,-0.027974,-0.002479,-0.30854,0.023059,-0.02798,0.074081,0.023029,-0.002472,0.074057,-0.002485,-0.078972,0.048536,-0.05347,0.074038,-0.002467,0.20158,0.099564,-0.053439,-0.35952,0.023078,-0.002516,-0.002485,0.023023,0.02301,-0.002448,0.099552,-0.05347,-0.10449,0.048561,-0.078966,0.048549,0.15059,0.023041,0.099564,-0.053482,-0.078984,0.12507,0.099552,-0.002472,-0.13002,-0.10451,-0.078984,-0.13,-0.18099,0.27813,0.20155,-0.23202,0.09957,0.22712,0.2271,-0.38508,-0.078984,-0.12999,0.58417,0.22708,-0.81869,0.20157,-0.20652,0.4567,0.22709,0.023029,-0.30855,-0.79316,-0.10454,0.22711,0.2271,0.20162,-0.027969,-0.027993,0.023029,-0.20652,-0.58914,-0.027974,1.0178,0.48218,-0.46154,-0.05347,-0.002461,0.27804,-0.053531,-0.002503,-0.25751,-0.078941,0.023072,-0.35954,-0.41061,-0.10453,0.55865,1.732,1.5025,-1.0482,-1.3033,-0.76766,-0.56358,1.5279,0.83925,-0.43606,-0.10453,-0.81866,-0.84421,-0.05347,0.30358,0.17603,0.40571,0.53321,0.30365,0.15056,-0.25754,-0.0535,-0.1045,0.074087,-0.23207,-0.053397,0.38016,0.12507,-0.5126,-0.41059,-0.4106,-0.64018,-0.25759,1.1709,1.0434,0.68622,-0.3086,-0.53807,-0.23198,-0.23204,-0.23203,-0.002497,-0.13004,-0.15548,-0.053482,-0.079014,0.78824,-0.053458,-0.053427,0.023078,-0.3341,0.074069,0.27812,0.38014,-0.20652,-0.99729,-0.18099,0.78829,0.12509,-0.23204,0.58414,-1.0993,-1.2523,0.66062,0.89032,-0.15546,-0.51257,0.43117,0.38025,-0.30855,-0.51265,0.17606,0.63519,-0.20652,0.074044,0.27809,-0.20646,0.12507,-0.23205,0.125,0.048585,-0.56358,0.074069,0.40579,0.89026,-0.23209,-0.48714,0.12505,-0.74223,-0.43601,0.074106,-0.02792,-0.10453,0.17602,0.20155,0.58421,-0.28302,-0.35957,0.12505,0.68621,-0.18101,-0.74212,-0.181,0.12509,0.15057,-0.41057,-0.48714,0.43119,1.5535,0.45666,-0.89527,-1.8135,-0.027969,1.7065,0.60974,-0.20655,-0.33412,-0.92064,-0.71668,-0.30855,0.38011,0.5587,0.96684,-0.35953,-0.053482,-0.28308,-0.2575,0.38005,-0.053446,-0.23196,-0.027956,0.15054,-0.38501,0.53311,-0.053555,0.023096,0.66077,-0.13,-0.078996,-0.48712,-0.15556,0.50764,0.45669,-0.33404,-0.92068,-0.30848,0.50765,-0.15553,-0.079014,0.25257,0.074026,1.1964,0.81376,-0.25753,-0.38508,0.45668,-0.027944,-0.6911,-0.51267,-0.99727,-0.02798,0.91578,0.30361,-0.79322,-0.79318,1.0689,1.783,1.4005,-0.7167,-1.0228,-1.2522,-1.3542,0.43107,0.78811,0.25254,0.099583,0.58422,0.15067,0.023084,-0.25756,-0.002461,0.32906,0.22715,-0.41059,-0.002479,-0.053537,-0.053525,-0.23195,0.32907,0.81377,0.40571,-0.23205,-0.12998,-1.3288,-0.64014,0.60972,0.32914,-0.20652,-0.33408,-0.10451,-0.56367,-0.10449,0.35461,-0.10449,0.25259,-0.079008,1.0944,0.60974,0.71175,-0.33404,-0.74221,-0.84416,-1.2523,-0.79316,-0.4872,0.96676,0.76273,2.089,-0.66548,-0.81865,-0.8442,1.0943,-0.35953,-0.3086,1.1707,-0.078923,-0.58897,0.58412,-0.58906,-0.15553,0.022986,-0.56356,0.15064,0.45665,-0.079008,-0.12996,-0.13001,-0.15553,0.22708,-0.41061,0.60969,-0.10452,0.71175,-0.027969,1.2474,-0.027969,-0.51262,-0.92072,-1.0227,-0.23202,0.20161,0.02301,0.074044,0.30362,0.78825,-0.4106,0.17606,-0.18282,-0.080812,0.023059,0.38014,-0.002503,0.048463,-0.053544,-0.81861,-0.30843,0.96678,-0.12998,-0.51254,0.99207,0.78795,-0.33406,-0.28284,-0.15529,0.38025,-0.41055,-0.61457,-0.41062,-0.15556,-0.30863,0.20151,0.43112,0.099534,0.38014,0.2271,0.40567,0.99233,0.96683,-0.69116,-0.38506,-0.86968,-0.078984,-0.053476,0.099588,-0.053519,-0.69116,-0.12998,-0.002467,-0.25756,-0.00243,-0.28301,2.0635,1.5534,0.50757,-1.0991,-0.69113,-0.35961,-0.7931,-0.66556,0.3291,1.2473,-0.25751,0.45658,-0.079033,-1.5328,0.38018,1.9869,0.20164,-0.56356,-1.2777,-0.43612,0.76251,-0.30854,-0.18097,-0.33399,-0.027931,-0.28303,0.22713,0.22708,1.0688,-0.027993,-0.46162,0.2526,-0.079014,-0.48711,0.40564,0.55875,-0.35959,-0.56371,0.68624,0.32915,-0.02792,-0.94627,-0.15553,-0.18087,1.885,-0.53812,0.2014,-1.0227,0.22702,0.4311,0.3547,-1.0225,-0.5635,-0.002565,-0.28307,0.81363,1.9103,0.32918,-0.58897,-0.43601,-0.48708,-0.20653,-0.43609,-0.027938,-0.053458,-0.15554,-0.56366,0.048518,1.2474,1.579,-0.028011,-0.69116,-0.64017,-0.97176,0.38014,0.25259,0.76277,-0.053378,-0.64015,-0.86965,0.12497,0.09951,0.1251,-0.51243,0.63507,1.1451,-0.18091,1.5536,-0.18097,-0.25759,-0.6147,-1.3797,0.02295,-0.3596,-0.56353,-0.02795,-0.6147,1.5278,1.2473,0.45669,-0.1555,-0.74204,-0.18103,-0.13005,-0.56357,-0.35942,0.048536,0.227,-0.43616,0.73724,-0.079002,0.048518,-0.43604,-0.43611,0.30364,1.7576,-0.84421,-0.84422,-0.56365,-0.79321,-0.28305,0.38014,0.91579,1.1199,-0.25751,-0.20653,-0.1044,0.023005,-0.94624,0.71172,1.2983,-0.38505,-0.51258,-0.15549,0.35449,-0.3595,-1.7112,0.45661,0.25247,0.63511,0.66065,-0.027938,-0.742,-0.51252,0.12512,0.76276,0.099479,-0.20655,-0.48713,0.76274,-0.002485,0.73725,-0.5891,-0.9207,-0.18107,1.1964,-0.079021,-0.69121,-0.20655,-0.4616,-0.28304,0.94135,-0.41056,0.1761,1.2219,-0.18099,-0.20645,0.63514,0.50766,-0.028066,-0.94611,-0.79309,-0.385,0.02295,-0.13001,-0.002467,1.5277,0.35456,-0.28293,-0.053353,-0.35945,-0.079063,-0.002472,-0.35952,-0.20652,0.25255,0.22702,0.76256,-0.053378,-0.38505,-0.9461,-0.4615,-0.078928,-0.8442,0.53313,1.1963,2.2167,-0.79322,0.074051,0.86477,-0.46161,-1.2524,-1.1248,-0.81864,-0.53807,-0.43598,1.2473,0.1505,0.22718,0.73717,0.66072,0.17616,-0.20643,-0.33399,0.66061,0.35457,-0.13005,-0.76753,-1.0737,-0.002552,0.81355,-0.18106,-0.76749,0.63514,-0.053439,-0.28303,-0.71658,1.0688,0.5843,0.022998,-0.02809,0.12501,-0.30859,-0.46158,0.023035,0.15063,0.12507,-1.3288,-0.35956,0.60973,1.5536,-0.078898,0.1759,-0.69109,0.22707,0.32902,-0.74211,-0.86969,-0.10459,-0.43603,0.86482,-0.053506,-0.20645,0.25262,0.50762,0.20161,-0.43606,-0.079075,0.073995,0.68617,0.048629,-0.23191,-0.4615,-0.5636,1.4,0.15052,-0.51249,-0.28296,-0.63998,0.38008,0.63512,-0.74205,-0.28298,-1.1757,-0.10448,1.9871,1.0688,-0.053555,-0.51263,-0.38511,-0.33402,-0.56361,-0.30848,-0.002491,-0.25759,0.50764,0.1761,0.71177,0.023017,-0.28299,-0.20664,0.20163,0.074062,-0.334,-0.4615,-0.71663,0.63507,0.60971,-0.027913,0.50771,-0.58913,-0.23207,0.17608,0.074111,-0.35962,-0.027987,-0.053531,-0.00254,0.023084,0.074038,-0.48696,-0.69101,0.94114,0.099577,-0.078959,-0.46143,0.0485,0.176,0.55857,1.5023,0.17614,-0.76761,-0.69115,-0.79315,-0.30859,0.20159,1.1199,0.6352,-0.35957,-0.92067,-0.23205,-0.46161,-0.58912,0.25263,-0.79318,1.6552,1.1452,0.40598,0.17622,-0.10452,-1.3033,-0.76762,-0.5891,0.30356,0.50756,0.58407,-0.053537,-0.30843,-0.64008,-0.97158,-0.13,0.63514,0.3036,0.2271,0.63511,0.43109,-0.10451,-0.12998,-0.23196,-0.12994,-0.30858,-0.51249,-0.30855,-0.43599,0.25248,2.1655,0.2271,-0.43608,-0.10438,-0.053458,-1.4818,-0.33405,-0.3595,0.94107,0.048518,-0.33405,0.48223,0.20159,0.25262,-0.63998,-0.33404,0.20153,-0.25755,1.3493,2.0381,0.20157,-1.2777,-0.76767,-1.3032,0.073946,-0.28308,-0.20651,0.30353,-0.15548,0.15058,0.32915,0.81365,0.43114,-0.30851,0.09957,0.074093,0.074093,-0.20648,-0.76763,-0.76771,-0.35956,-0.69117,1.5024,0.15057,0.4056,-0.18091,-0.76766,-0.15554,0.30363,-0.20652,-0.028018,0.25262,0.099485,-0.027987,-0.58913,-0.53809,0.35475,0.73723,0.89029,0.94134,-0.002467,-0.30864,-1.1248,-0.92072,-0.79315,-0.028042,0.35456,-0.6655,0.53317,0.78829,0.68622,-0.66556,-0.10445,0.66057,0.71161,-0.53803,-0.33402,-0.46154,-0.487,-0.6401,0.27802,0.022907,-0.23202,-0.23187,0.99226,0.94109,0.022974,-0.66545,-0.92059,0.71163,0.099644,0.099583,-0.15548,0.60967,0.048494,-0.64019,0.20158,-0.99725,0.048506,0.99224,0.32915,0.048561,-0.66559,-0.99717,-0.4615,0.38024,0.71169,0.99227,0.53317,-0.079039,-0.79321,-0.28311,0.023103,-0.053537,-0.46159,-0.64014,-0.28302,0.86472,1.0178,-0.89489,-0.86955,1.3236,-0.181,-0.002558,-0.35957,-0.25749,0.17608,-0.10456,0.20151,0.81379,0.89037,-0.74209,-1.3033,-0.71657,0.25254,0.38001,0.099613,0.023035,-0.56356,-0.20652,0.023078,0.7117,-0.18105,0.68618,-0.35952,-0.002479,0.27808,0.94124,0.76268,-0.48712,-1.0482,-0.53809,-0.35952,-0.30854,0.7627,-0.69097,-0.48699,0.329,0.20155,-0.56346,0.66062,0.63504,0.48214,-0.10447,-0.56356,-0.58906,0.2271,1.2472,0.22708,-0.94612,-0.48701,-0.33401,-0.53803,-0.002374,-0.002558,0.48213,0.073971,0.048561,0.12505,0.074033,0.86472,-0.33407,-0.89523,-0.079014,0.023114,0.6608,-0.64026,-0.078959,0.99234,-0.10447,-0.6401,-1.4051,0.022937,-0.48722,0.63523,1.426,0.86472,-0.053513,-0.79317,-0.46165,-0.18109,-0.43601,0.94125,-0.51249,-0.76759,-0.53804,1.3747,0.91565,-0.30848,-0.64003,-0.436,-0.12996,0.45666,0.53315,0.35446,-0.30851,-0.28286,-0.99702,0.55852,0.30349,0.22704,-0.1811,0.2781,0.2016,0.25262,-0.027962,-0.58914,-0.33407,-0.20648,0.86483,1.2985,-0.13004,-1.4564,-0.48715,0.7372,0.17617,-0.25756,-0.56359,-0.18109,0.32901,-0.4871,-0.12993,1.2474,1.0688,-0.53807,0.81364,-0.58903,-0.38511,0.099412,-0.079106,-0.30843,-0.25748,-0.38502,0.4567,-0.53788,0.66067,0.099595,0.50744,-0.71652,-0.13003,1.4766,0.37994,-0.078861,-1.8386,-0.25754,0.12513,0.45659,-0.002418,-0.10449,-0.20651,0.32907,-0.027998,-0.23201,0.2526,0.40556,-0.53817,-0.23193,0.81379,1.0178,0.0485,0.2781,-0.58911,-0.41061,-0.30854,-0.18105,-0.15554,-0.7165,-0.94614,1.4768,-0.30855,0.40576,0.53317,0.32905,-0.002534,0.329,-0.64006,-0.25751,-0.002467,0.048585,-0.23194,0.50767,1.0432,0.45662,-1.1247,-0.30851,0.073946,-0.53803,0.048525,0.83908,0.22713,-0.53806,-0.33403,-0.053402,-0.1555,0.30356,-0.64001,0.35457,1.0687,-0.027962,-0.64012,-0.30852,-0.027907,0.76275,0.35458,-1.9153,0.27807,0.58417,0.15051,-0.43618,-0.61471,-0.61463,0.53318,1.732,0.96682,-0.33406,-1.4308,-1.0992,-0.30856,0.12508,-0.027889,0.15056,1.5786,0.32907,0.048659,-0.2574,-0.41054,-0.2065,-0.46157,-0.13,-0.7931,-0.58903,0.30362,1.0433,0.55856,1.2216,-0.35967,-0.35956,-0.20642,-0.10445,-0.35951,-0.41052,0.25257,-0.66553,-0.69118,0.12502,0.17615,0.53319,0.20159,0.20155,-0.69113,-0.23207,1.1709,0.60976,-0.5126,-0.56366,-0.61472,0.45661,-0.33409,0.25262,0.15073,-0.027882,-0.079088,0.022961,0.40557,-0.20642,-0.81864,0.099448,0.15069,1.4004,0.60977,0.25257,-0.53812,-0.38516,-0.69113,-0.51263,0.38007,-0.5634,-0.07891,0.6606,-0.13001,0.27806,0.12499,-0.002485,0.22713,0.25262,-0.078886,-0.20651,0.17607,-0.027987,0.32909,-0.05347,-0.23209,-0.41063,-0.20644,0.17605,0.20156,0.6352,-0.18089,-0.15542,-0.13005,-0.079057,-0.38516,-0.28311,0.048622,1.5535,0.48209,0.7628,-1.0991,-0.20661,-0.13018,-0.4616,-0.38504,-0.6146,-0.10447,0.94118,0.25272,-1.2266,0.22711,0.48216,1.7063,0.22705,-0.35956,-0.43601,-0.13005,0.32898,-0.027969,-0.844,-0.7166,0.81373,0.3546,-0.002503,-0.05347,-0.30855,-0.81873,-0.28294,0.96677,0.81373,0.63521,0.40565,-0.46166,-0.25757,-0.66561,0.099613,-0.10445,-0.3086,-0.10442,-0.0535,0.099601,0.2526,0.20163,-0.13007,-0.33401,0.022998,-0.58905,0.2526,0.63512,-0.20653,0.6351,-0.12999,-0.33401,-1.2776,0.73721,-0.053495,-0.027969,0.86467,0.94114,-0.38495,-0.28302,0.09951,-0.002448,-1.0737,-0.79313,0.71178,0.60973,0.86478,-0.6147,-0.053629,0.17607,-1.0228,-0.18101,0.50769,0.12514,-0.33401,0.023078,0.73711,0.60967,0.22717,-0.76768,-1.1247,-0.25762,0.96681,0.55881,0.86482,-0.64014,-0.25764,-0.30859,-0.2066,0.27812,0.66064,0.32925,-0.46157,-0.46161,-0.41052,-0.20649,0.96665,-0.46154,-0.41051,0.2016,-0.12994,0.35453,-0.002412,0.68624,-0.23193,0.099497,-0.6911,0.73708,-0.33402,-0.23205,-1.1758,0.3801,0.99229,1.4005,-0.078923,-1.0483,-0.13005,-0.23198,-0.35959,-0.58903,0.73721,0.15049,0.023029,-0.23207,0.22716,-0.25759,-0.15556,0.81376,0.60975,0.023059,-0.46147,0.15065,-0.41061,-0.53812,-0.41065,-0.41061,0.5585,-0.12995,-0.89501,0.12524,1.2983,0.43107,-0.51255,-0.028023,0.12499,0.60976,0.04858,-1.3032,0.48205,0.048536,-0.053464,0.45658,-0.23196,-0.28298,0.07402,0.3036,-0.334,-0.61451,0.17598,-0.20661,-0.43616,0.25272,-0.15535,1.0688,0.58413,0.4056,0.17606,-0.69119,-0.74219,-0.35953,0.35461,-0.38513,0.099644,0.35473,-0.15542,0.43105,-0.46153,0.074013,0.023047,0.86462,0.048555,-0.078953,-0.002301,-0.43603,-0.71659,-0.79314,0.30352,0.40555,0.38006,0.58403,0.074087,0.27809,-0.8185,0.099577,0.3801,-0.23204,-0.92051,-0.53807,0.55854,0.27806,-0.30854,0.5587,0.5587,-0.18103,-0.86972,0.15054,0.32907,-0.25739,0.6606,-1.3796,-0.18096,0.73705,0.25248,-0.53807,0.30364,0.60968,0.40575,-1.2012,-0.10454,0.022992,0.53309,0.074044,0.17606,-0.18098,0.76269,0.023163,-0.10443,-0.5636,0.32897,-0.18104,-0.20649,-0.5125,0.023065,0.45658,0.35449,-0.53796,-0.48691,0.78823,0.45658,0.71169,-0.51255,-1.1757,-0.51269,0.38003,0.50769,-0.079002,0.55864,-0.078917,-0.6911,0.25253,0.63511,-0.33399,-0.89509,-0.38517,0.91577,0.12524,1.5789,-0.35957,-0.89522,-0.97171,-1.6092,0.73698,1.2472,-0.4361,-0.078947,-0.38499,0.35463,0.5077,0.50766,0.43107,0.17611,-1.4816,-0.41058,-0.25756,0.227,-0.053519,0.30356,0.5332,0.12514,-0.13002,-0.10444,0.022974,0.55856,-0.30854,-1.2011,0.58409,0.53315,0.43112,0.68623,-1.0225,-0.35956,0.66058,0.53293,-0.74204,-0.002503,0.048536,-0.23192,-0.30846,-0.25754,0.55864,0.48219,0.5587,0.12507,-0.48702,-0.64015,0.12496,-0.48711,-0.18092,0.81355,-0.25755,-0.18098,-0.48692,0.38016,-0.10446,-0.38501,0.022998,0.53312,0.27803,0.12501,0.45658,0.43108,-0.02792,-1.0991,-0.15548,-0.41054,0.20153,0.30353,0.048469,1.0687,-0.053397,-0.2065,-0.81852,0.58414,0.91574,-1.0226,-1.0991,0.99212,0.58403,-0.69115,-0.28295,0.38021,-0.41049,0.15054,0.12499,0.023047,-0.10453,-0.35957,0.12501,0.55872,0.3291,0.35456,0.68621,-0.18089,-0.33396,-0.4871,-0.43609,-0.84416,0.048451,-0.1045,0.20159,-0.053488,-0.002338,0.94124,0.48217,-0.28304,-0.33399,-0.10447,0.022974,0.20153,0.45666,0.63521,-0.43596,-0.5636,-0.86961,0.02295,0.43103,1.1196,0.78802,-0.53801,-0.74195,-0.23199,-0.74196,0.40561,0.71168,0.074062,-0.46159,0.22711,0.58419,0.12507,-0.79307,-0.69116,-0.5127,-0.58916,-0.12988,2.2167,0.86469,0.25256,-0.69121,-0.43613,-0.002454,-0.25759,-0.61446,-0.02795,0.3291,-0.74202,0.73717,0.66067,0.27804,-0.46151,-0.027962,0.38,-0.02806,-0.23196,-0.078904,-0.053506,0.048549,-0.56358,-0.76751,1.2983,0.074008,-0.25758,-0.58903,-0.92053,0.6606,0.5076,0.40561,0.15054,-0.23205,-0.053537,0.30352,0.55871,0.25269,-0.10449,-0.99716,-0.027938,0.048543,-0.25749,0.53321,0.3036,-0.89523,-0.43607,0.76268,0.71164,-0.35954,-0.48708,-0.2065,-0.3595,-0.10455,-0.538,1.0687,0.71165,-0.71645,-0.66549,0.81358,0.17604,0.40568,0.68609,-0.33407,0.048555,-0.25758,-0.15548,-0.66547,0.58397,-0.23205,-0.002423,0.17617,-0.053286,-0.89512,-0.35959,-0.002546,0.55865,0.38004,0.12504,-0.053476,0.048531,-0.079057,0.17606,-0.25738,0.48222,-0.00254,0.27805,-0.38509,-0.61472,0.38014,0.43129,-0.20638,-0.35947,0.32905,0.048476,-0.18114,-0.56358,0.20147,-0.18106,-0.12993,1.0432,0.40567,0.099583,-0.51248,-0.61455,-0.10446,-0.181,0.048536,0.73711,1.2981,-0.23195,-0.2065,0.048476,-0.81856,-0.51249,-1.7367,0.6606,0.68612,0.94119,0.27808,-0.35956,-0.58909,-0.23207,-0.05347,0.55853,-1.0226,0.15064,1.222,0.30359,-0.76765,-0.43603,-0.002503,0.53321,-0.053488,-0.86978,0.17603,-0.078953,-0.28297,-0.15549,0.58419,-0.00243,-0.15551,-0.28309,0.94119,0.27802,-0.76753,0.074209,0.43112,0.40561,-0.23205,-1.2266,-0.43607,0.176,0.17601,0.60959,-0.05347,0.048585,0.32909,0.074106,-0.33397,0.58413,-0.18095,-0.76756,-0.6656,-0.181,0.3035,0.15055,0.73719,0.38011,0.25261,-0.71665,-0.51252,0.40561,-0.027938,-1.2777,-0.053598,1.4768,1.2219,-0.10444,-0.58903,-0.81872,-0.48708,-0.64012,0.45658,0.48228,1.7831,0.40555,-0.46167,-0.6656,-0.76763,-0.23203,-0.46172,0.022986,0.25279,0.53333,0.50755,0.25252,0.073971,-0.46156,0.073989,-1.048,0.099559,0.55859,0.48199,-0.53797,0.63515,0.94127,-0.69108,-0.66549,-0.38506,-0.43606,-0.028005,0.17604,-0.15554,0.43113,0.66067,-0.15553,-0.2065,-0.86961,0.22706,0.71171,0.6352,-0.15553,-1.0482,-0.35956,0.0741,0.66074,0.50765,0.45673,-0.35957,-0.46164,-0.23203,-0.18101,0.30363,0.45664,-0.38513,-0.64018,-0.56355,0.12518,1.4003,0.83913,-0.58907,-1.15,0.22705,-0.41052,0.55853,0.55858,-0.15541,0.12502,0.20158,0.37994,-0.589,-0.35954,0.40566,-0.15545,-1.3796,0.30353,0.63503,0.048549,0.27809,-0.28305,-0.79308,-0.35946,0.22705,0.22703,0.55861,0.15056,0.22705,0.25262,0.2016,-0.58914,-0.10447,-0.002436,0.50769,-0.58918,-0.33398,-0.43602,0.17608,0.58423,-0.41052,-0.15551,0.27811,0.20159,1.2981,-0.51262,-1.2522,-0.74211,-0.33405,-0.18093,1.0943,0.7626,0.176,-0.79309,0.22737,-0.15532,1.3236,-0.58913,-0.46156,0.17603,0.66062,-1.0226,-0.15552,0.25251,-0.81856,-0.02792,0.76257,-0.002418,-0.078972,0.074087,-0.30851,0.0485,-0.10452,0.048518,-0.027944,-0.02795,-0.053439,0.17606,-0.41064,0.35468,0.43125,0.35463,0.35453,0.074075,-0.71674,-0.46165,-0.33403,-0.35952,-0.12997,0.48219,-0.28295,0.48213,-0.1556,0.12503,1.1709,-0.38487,-0.1045,0.15037,-0.69121,-0.10455,-0.74198,-0.00243,0.30357,0.17603,0.40558,0.2271,0.023054,-0.71651,0.25256,1.0941,0.023133,0.45661,-0.92064,-0.86954,-0.20648,0.73712,0.48208,-0.1045,-0.079021,0.074033,-0.30849,-0.027944,0.63515,-0.30848,0.38008,0.91563,0.30376,-0.15547,-0.58908,-0.43612,-0.56363,-0.48713,-0.25751,0.48213,0.60962,0.17612,0.25259,-0.12995,-0.28295,0.30345,-0.10467,0.023072,0.68632,0.68639,0.73737,-0.078972,-1.0737,-0.81879,-0.79319,0.50743,-0.15557,-0.35956,-0.027907,-0.53793,0.099619,1.6553,0.099601,-1.4051,-0.30849,-0.002528,0.55854,0.30355,0.22707,0.25256,0.048549,0.048573,-0.15543,-0.18104,-0.46157,0.048531,0.38016,0.38019,-0.9462,-0.28307,0.55866,0.66074,-0.10453,-0.38511,-0.61464,-0.027925,-0.002485,0.60966,0.81381,0.17608,-0.38499,-0.10459,-0.76755,-0.002485,0.20147,-0.51275,0.099608,1.1454,0.023121,-0.053433,-0.66559,-0.46163,-0.027907,0.25261,0.91568,-0.15551,-0.58911,0.15054,0.12501,-0.10449,-0.487,-0.46157,0.43103,0.40561,0.023152,0.27815,-0.002461,-0.25753,-0.38505,-0.25748,-0.28302,0.15055,-0.48711,1.6554,0.71178,-0.18097,0.022901,-0.8952,-0.74216,-0.20649,-0.33405,0.45664,0.66074,0.30361,-0.283,-0.25756,0.048518,-1.303,-0.48699,0.66053,1.2472,0.71168,-0.18097,-0.48703,0.35459,1.0431,-0.43604,-1.0226,-0.13001,-0.41052,-0.053446,-0.1556,0.38015,0.074118,-0.10444,0.048525,-0.35959,-0.99706,0.02301,1.6042,0.17601,-0.053519,-0.64001,-0.18095,0.30362,0.55872,0.43115,0.22707,-0.2065,-0.6657,-0.53809,0.53319,-0.027858,0.1251,-0.69114,0.022986,-0.3086,-0.33405,0.099546,0.30356,0.48211,0.12514,0.074075,0.099577,0.27814,0.38001,0.43114,-0.43593,-0.48702,-0.33405,-0.71658,-0.43604,-0.028011,0.78802,-0.02798,-0.38503,1.0433,-0.027944,0.074081,0.15059,0.17606,-0.35955,-0.71658,-0.078959,0.53309,-0.25745,-0.41054,0.48206,-0.23203,-0.20649,-0.25755,0.20159,0.53316,0.22715,-0.053525,-0.002436,1.3239,-0.3851,-0.23202,-0.92065,-0.48713,-0.79319,-0.46153,0.35456,0.68598,0.048567,0.50781,0.074191,-0.28301,-0.43607,0.48204,0.94115,-1.1246,-0.10447,0.5076,0.48208,-0.23201,-0.4105,0.68607,-0.12995,-0.64003,-0.20649,0.04861,-0.41047,-0.15547,0.048458,0.81368,-0.053495,-0.66564,0.25257,0.63522,0.22707,-0.002479,-0.5636,0.074013,-0.053476,-0.181,-0.027962,0.35466,0.15056,-0.30853,0.074051,-0.07899,0.25257,-0.436,0.099564,0.30358,-0.027938,0.12506,-0.053555,0.3547,0.27814,-0.028018,-0.28307,-1.2776,-0.1045,0.35444,-0.078941,-0.002345,0.53314,0.12501,-0.30851,-0.4105,-0.28304,0.94108,0.20156,-1.1501,-0.12996,0.58409,-0.18097,0.02309,0.17604,-0.38505,-0.027931,0.17604,-0.002503,-0.1045,-0.027913,-0.25749,0.68609,0.22697,0.3291,-0.12987,-0.97168,0.20163,0.76277,-0.002479,0.76284,-0.58914,-0.20668,-0.002577,-1.3542,-0.38503,-0.079026,1.0177,0.17612,-0.20647,0.04858,0.55864,0.40565,0.074008,0.2016,0.58417,0.17598,-0.89509,-1.3286,0.30354,0.53317,0.43118,-0.30852,0.12501,0.099448,-0.46156,-0.51255,-0.41054,0.63515,-0.742,0.40559,0.27808,-0.38506,0.2271,0.048525,0.50762,-0.25752,-0.002412,0.78827,-0.00243,-0.41057,-0.23202,0.15055,-0.35966,-0.6401,0.20163,0.73723,0.5842,-0.10451,-0.33407,-0.35959,0.09951,0.22711,0.27817,-0.81857,0.25259,0.20159,-0.15546,0.40571,0.83912,0.1505,-0.28309,-0.89516,-0.38507,-0.48699,0.53306,0.048476,-0.12989,0.68632,0.55876,-0.23203,-0.053506,-0.079002,-0.18105,-0.10455,0.40559,0.1761,0.45663,-0.74208,-0.84409,0.023035,0.048518,-0.4871,0.38011,0.40561,0.17604,-0.078953,-0.43603,0.43108,-0.13,-0.48706,0.35468,0.40561,-0.078941,-0.28302,-0.25754,-0.10449,-0.94617,0.15052,0.81377,1.1453,-0.58904,-0.41052,-0.79316,-0.079081,0.6861,-0.10447,0.482,0.81362,-0.25741,0.12505,-1.0226,-0.64001,-0.51245,-0.20647,0.71164,1.0686,0.17601,0.25256,-0.38494,-0.74204,-0.43601,0.099503,0.38006,0.32912,0.09954,-0.1045,-0.46153,-0.13005,0.53316,-0.53811,-0.61461,0.38015,0.78832,-0.15548,0.53315,-0.053513,0.15056,-0.25757,-0.53813,-0.43604,-0.027993,-0.20651,0.17603,-0.18097,0.25259,-0.89505,-0.15548,0.25245,0.94125,1.7834,1.1199,-0.38523,-0.92081,-0.79323,-0.079088,-0.053616,-0.30853,-0.385,0.32906,-0.38494,-0.46144,-0.027907,0.074038,0.48218,0.32912,0.099552,0.022961,0.43104,-1.2265,0.22702,0.55853,0.20154,0.22708,-0.10449,-0.81865,-0.41051,-0.15555,1.2219,0.63528,-0.10453,-0.38506,-0.23203,-0.71666,-0.18102,0.22706,-0.43609,-0.38495,-0.20657,0.43118,0.86474,0.68629,0.53303,0.3291,-0.28295,-1.4306,-0.3851,0.278,-0.002521,0.023035,0.68605,-0.38503,-0.33403,0.20171,1.5789,0.43113,-0.66554,-0.20655,0.25252,-0.46157,-0.8696,-0.48711,-0.002443,-0.25754,0.48218,0.48216,-0.13001,0.17604,0.12506,-0.181,-0.35952,-0.15555,0.78822,0.94131,0.15057,-0.46162,-0.43606,-0.48713,-0.46159,0.074062,0.25263,0.55869,0.32903,0.1505,-0.71647,-0.56349,0.074013,0.073959,-0.28312,-0.079002,-0.053329,0.074057,0.38003,0.023047,0.22708,0.86456,-0.23197,0.83915,-1.609,0.35466,0.32907,0.50763,-0.23203,-0.30854,-0.74204,-0.053476,0.099515,-0.41054,-0.79318,0.27805,0.60966,0.50769,0.30363,0.099564,-0.079057,-0.51255,-0.25759,0.30363,0.048543,0.76273,-0.38506,-0.15549,-0.61462,-0.283,0.40569,0.38011,-0.76766,-0.33411,-0.25745,0.32912,0.3036,0.40565,0.17606,0.099515,-0.4615,-0.027944,0.76255,-0.002436,-0.053458,0.048555,-0.15548,-0.25743,-0.23202,-0.99709,0.25247,0.686,-0.18106,0.022998,-0.027969,-0.20638,0.53321,0.38016,0.12506,-0.15558,-0.74209,-0.07891,0.30359,-0.002497,-0.28305,0.023047,0.048512,0.12505,-0.41057,-0.15555,0.32913,1.579,0.73728,-0.28302,-0.41074,-0.61463,-0.12994,-0.56358,-0.33398,0.022998,0.17606,0.60967,-0.74206,-0.28309,0.43111,0.30359,0.4056,0.43115,-0.6144,0.38007,0.30353,0.12499,-0.079014,-0.1555,0.12504,-0.46151,0.074038,-0.20651,0.15062,0.048573,-0.20644,-0.74214,-0.053513,0.32911,0.48224,0.0485,0.40544,0.022968,-0.35953,-0.12999,-0.15547,0.48219,0.53323,-0.10447,-0.027993,-0.28301,-0.05347,-0.20655,-0.232,-0.002516,0.048536,0.023059,-0.12989,0.04858,0.53306,0.074033,-0.078996,-0.13001,0.4566,0.60967,0.074057,-0.5126,-1.3286,-0.51248,-0.15539,0.023005,0.22697,0.66056,0.60957,-0.81852,-0.20648,0.5076,-0.15553,0.27806,0.27815,-0.23194,0.30369,-0.232,-0.58911,0.48214,0.55867,-0.487,-0.53817,-0.53807,0.15047,-0.1811,0.099534,0.60969,0.4312,-0.10448,0.17608,0.48213,-0.002443,-0.41057,-0.15549,-0.002448,0.2271,0.09957,-0.35953,-0.35951,-0.25751,0.63509,0.20156,-0.10451,-0.97157,0.17611,1.0686,0.15057,-0.56354,-0.028023,0.50758,-0.28296,0.20163,0.22705,-0.028005,-0.48703,-0.053439,0.38011,0.25255,-0.07899,0.02298,-0.10449,-0.84416,0.27819,0.73727,-0.38507,0.12506,0.48214,-0.18098,0.15051,0.022986,0.07402,-0.53809,-1.0226,-0.74209,0.3291,0.78818,0.45663,-0.078874,0.27803,0.35455,0.35456,-0.69102,-0.15548,0.5076,0.2525,-0.28291,-0.5891,-0.63998,1.1708,1.2728,-0.74221,-0.56356,-0.51256,-0.51263,-0.078977,-0.1045,0.12508,0.09951,0.15062,0.099595,0.17602,0.4056,-0.6145,0.96673,0.15051,-0.69102,-0.23209,-0.35959,0.32913,0.27815,0.17614,0.12498,-0.002491,-0.89516,-0.48705,-0.20655,-0.027987,0.43115,0.3036,-0.28306,-0.23202,0.074118,0.86483,0.023108,-0.20653,-0.30865,-0.18108,-0.10439,0.40565,0.68605,-0.66563,-0.74212,-0.283,0.048543,-0.38507,0.15062,0.73724,0.58419,-0.13001,0.15053,-0.10451,0.023035,-0.5891,-0.41053,0.60973,0.60973,0.58421,-0.79325,-0.46157,-0.079045,-0.18103,-0.10447,-0.12996,0.023023,0.27805,0.96666,1.0689,-0.86947,-0.18109,0.073989,-1.0226,0.074062,0.53314,1.0685,-0.15551,0.048598,0.074069,-0.487,-0.41051,-0.46158,-0.181,0.074044,0.07402,0.20161,-0.1045,-0.079021,0.48215,0.45676,-0.00235,-0.25758,-0.079021,0.17595,0.12509,-0.13005,-0.10447,-0.33409,-0.028018,0.17609,-0.76752,-0.20644,0.12508,0.099595,0.22708,1.094,-0.53823,0.27814,1.324,0.12516,-0.41055,-0.94614,-0.53814,-0.33412,-0.23198,-0.15549,0.048469,-0.20647,-0.078977,0.53314,0.60961,0.50763,-0.053415,-0.053421,-0.053513,0.53321,-0.30855,-0.20655,-0.33411,-0.84411,-0.23193,0.17603,0.25252,0.7117,0.81376,-0.002374,-0.12998,-0.38513,-0.53814,0.02301,-0.28308,-0.10445,-0.0535,0.45669,0.27811,-0.10444,-0.33406,-0.25754,0.176,0.04861,0.12515,0.53304,-0.23197,-0.15553,-0.5125,-0.74199,0.50757,0.86455,-0.53804,0.15054,-0.38503,0.25251,0.048555,-0.027956,0.2526,-0.74204,0.30362,0.55869
-0.002479,-0.10448,0.12505,-0.10448,0.023029,-0.20649,0.074033,-0.002461,0.048543,0.099559,-0.078977,0.15056,-0.078984,0.15056,-0.23201,-0.053482,0.023047,-0.078984,0.20159,0.074075,0.12507,0.048549,0.023017,0.023054,-0.13,-0.027969,-0.13,0.099546,-0.12999,-0.002467,-0.002454,-0.027974,0.12507,0.07402,0.15056,-0.30851,-0.12995,0.32912,0.22705,0.074038,-0.13002,-0.23202,0.048549,0.15059,0.17608,-0.027987,-0.078972,-0.053476,0.20159,0.048555,-0.05347,-0.23203,0.023035,-0.027956,-0.002467,-0.10449,0.048531,0.048531,0.099564,-0.053482,-0.15546,-0.002479,0.074051,0.074033,0.12507,-0.002479,0.048549,-0.1045,0.15057,-0.10448,0.099546,-0.181,0.15057,-0.078966,0.12505,0.12506,-0.053495,-0.15549,-0.10447,0.023047,0.12507,0.12501,0.023041,-0.027969,0.048573,-0.10448,-0.002491,0.099552,-0.027987,0.023041,-0.027969,-0.002461,0.074075,-0.07899,-0.002443,-0.15549,0.048561,0.074051,-0.079008,-0.20652,-0.078984,-0.027987,0.099577,0.15055,0.09957,-0.10449,0.023035,-0.002461,0.02301,-0.027956,-0.10448,0.15059,-0.053482,0.023035,-0.10447,0.074038,-0.078984,0.023035,0.023041,-0.02798,0.09957,-0.15548,-0.053464,-0.078972,0.074044,0.12505,-0.027987,-0.053482,-0.078977,-0.05347,0.17607,0.17607,-0.20647,-0.053495,0.023035,0.048543,-0.002467,-0.002491,-0.002485,-0.12997,-0.078972,0.17608,-0.002467,0.12505,0.048536,0.023029,-0.002467,-0.078996,-0.181,0.023041,-0.12998,-0.05347,-0.002472,0.12505,0.12507,-0.002467,-0.002485,-0.25751,0.22708,0.17609,0.17607,-0.20652,-0.027987,-0.23202,0.12507,-0.02795,0.43115,-0.23203,-0.10451,-0.15549,-0.079008,-0.078966,0.074038,0.099577,0.12505,0.074044,-0.05347,-0.078984,0.099564,0.074038,-0.20648,-0.078972,0.048543,0.048549,0.023041,0.023023,0.099528,0.048531,-0.12997,-0.10449,-0.02795,-0.002467,0.22707,0.02301,0.09954,-0.002472,-0.002461,-0.053476,0.2271,0.048561,0.09957,-0.23202,-0.25751,-0.002479,0.048567,-0.027993,-0.002485,-0.002467,0.17608,0.048555,-0.18101,0.074062,-0.027962,0.074038,0.15059,-0.13,-0.027969,0.023041,-0.13001,-0.12999,0.099546,0.023041,0.12505,-0.027969,-0.15549,-0.25755,0.023029,0.099577,0.8393,0.94131,-0.35959,-0.74218,0.048506,-0.053427,0.15059,-0.56359,-0.51263,-0.13,-0.30857,0.71171,0.50765,0.40561,-0.30856,-0.027974,-0.56356,-0.20653,-0.002454,0.5842,0.68631,0.2526,-0.002461,-0.43612,-0.94626,0.074051,-0.002461,0.68627,-0.028011,-0.86972,-0.4871,-0.25754,1.0943,0.78823,-0.20653,-0.35954,-0.66569,-0.25749,-0.18101,0.12507,0.35464,0.63521,0.17611,0.45667,-0.41055,-0.48712,-0.10456,0.76269,0.074062,-0.58906,-0.97168,-0.053427,0.22712,-0.002467,0.3546,0.43115,0.43109,-0.18106,-0.18106,0.12506,-0.3085,-0.51255,0.27811,-0.84431,0.27811,-0.027871,1.6556,-0.078984,-0.38512,-0.3341,-0.79322,-0.13003,0.30361,0.30364,-0.20653,0.17606,-0.15549,-0.10449,0.40566,-0.002461,0.023023,-0.61463,0.15068,1.1199,0.60973,-0.18106,-0.35962,-1.0483,-0.69105,-0.43607,0.68608,1.0178,0.22709,0.58417,-0.18097,-0.81859,-0.38505,-0.79318,0.81367,0.12501,-0.002461,-0.30855,0.023072,-0.078928,-0.15551,0.17609,0.17604,-0.51266,0.66072,1.2985,0.6097,-1.0228,-0.25751,0.048531,-0.41057,-0.3851,-0.46164,-0.13003,0.27812,-0.078972,-0.66557,0.68626,0.35464,0.25257,-0.61466,-0.028011,0.099595,0.48216,-0.027962,0.04861,-0.53815,-0.51266,0.35466,0.43118,0.5332,0.30363,0.17607,-0.58911,-0.79326,-0.30857,0.12512,-0.64011,-1.3288,0.4056,1.5024,0.55864,-0.58916,-0.71661,-0.33402,0.58413,2.5738,1.7575,0.78835,-0.84424,-1.686,-0.43609,-1.0993,-0.30849,-0.30852,-0.30855,0.35458,1.2219,-0.18099,0.86471,-0.43608,-0.8187,0.25263,-0.078972,0.12506,-0.2065,-0.20649,-0.027998,0.0485,-0.027987,0.15056,0.099564,-0.13001,0.15063,0.35459,0.40562,-0.053506,-0.053446,-0.20651,-0.43599,0.17602,0.30355,-0.46158,0.45661,-0.30855,0.17608,0.58423,-0.53804,-0.41052,0.12499,0.074008,-0.23205,-0.51256,1.6045,0.12515,-0.43611,-0.15555,-0.6657,-0.51264,-0.027993,1.426,0.17604,0.15052,-1.0992,-0.15545,-0.43612,0.68614,-0.74218,-0.99723,1.324,0.27811,0.60962,0.15062,-0.28307,-1.2523,-0.92076,-0.46156,0.048549,-0.028042,0.89029,1.7576,0.2271,-0.079039,-0.30856,-0.51262,-0.41056,0.22701,-0.18097,-0.64011,-0.28297,0.94129,0.9668,0.2781,0.099485,-0.25757,-0.51262,-0.99721,-0.46145,0.45671,0.50768,0.25254,0.22706,-0.58915,-0.74225,-0.002423,2.14,0.07413,-0.38497,-0.71666,0.02301,-0.92072,-0.56366,0.099577,1.63,-0.41057,-0.053495,1.5279,-0.12997,-0.64015,-0.94626,-0.53812,0.30171,-0.18282,-0.38683,0.0977,0.42922,0.25071,0.1487,0.32905,0.45666,-0.46159,-0.69111,2.5228,0.17617,-0.079045,-0.69119,-0.48718,-0.18103,-0.25756,-0.84409,0.22712,0.94127,0.074044,-0.28305,0.2016,0.25265,0.76276,0.17603,-0.20656,-0.30853,-0.25753,-0.283,-1.0228,0.43112,0.58422,1.3748,0.50779,0.074136,-1.5073,-0.18122,-0.5126,-0.4106,0.55861,-0.53816,-0.64004,-0.89526,1.1455,3.3646,0.94129,-0.89523,-0.99731,-0.86978,-0.51268,0.32921,-0.23194,0.15052,-0.15554,-0.53806,0.73721,0.12502,0.25266,0.48212,0.2526,-0.079014,-0.35959,-0.61462,-0.81867,0.09965,0.2526,1.1708,0.17604,1.3239,-0.53813,-1.2012,-0.53812,-0.64015,-0.13009,-0.002516,-0.46151,0.76279,0.30351,0.17605,-0.13007,0.023133,0.45677,0.94133,-0.66568,0.074013,0.40563,0.35469,-0.86958,-0.33405,0.278,-0.053482,-0.89512,-0.23213,0.17602,0.7881,-0.18097,-0.9462,-0.13001,2.7523,1.6557,0.4824,-1.5328,-0.74226,-0.33422,-0.84429,-1.0993,-0.25754,-0.18094,-0.3339,1.0177,0.43113,0.17606,0.023127,0.12508,0.6862,0.71182,2.3187,-0.53807,-1.3544,-1.4054,-0.94625,-0.28308,-0.48714,0.45669,0.68618,1.1964,-0.15555,0.074118,-0.46154,-0.58906,-0.35953,0.73724,-0.028042,0.48216,0.43115,-0.94612,-0.84422,0.099552,-0.58919,0.43104,-0.12992,0.30359,-0.38517,-0.35964,-0.002252,1.171,1.6807,0.58429,-0.74194,-1.5328,-1.0738,-0.66568,-0.4616,-0.079014,0.4311,0.12508,0.30361,0.38012,0.35462,0.38012,0.73728,-0.002448,-0.23205,-1.533,0.15059,0.5587,1.4515,-0.12998,-0.69116,-0.76767,-1.7115,-0.027944,-0.48709,1.8085,0.074038,-0.56367,-0.71673,0.73727,0.55885,-0.94598,0.12498,-0.41064,0.023023,1.2983,2.0889,-0.20649,-0.71662,-1.0737,-0.6401,-0.56354,-0.51257,0.50768,0.32924,1.1705,0.04858,-0.078959,0.96698,-2.1957,-0.86976,0.25242,0.20149,-0.7933,0.91576,1.4769,0.94131,-0.61467,-0.02795,-1.0737,0.8648,0.73729,-0.69115,-1.0737,-1.0483,-0.41056,1.1199,2.3697,-0.74226,-0.51248,-1.1757,0.17608,1.1453,0.2015,-0.15549,0.83911,-0.33409,-0.10439,0.20164,-1.5581,0.099491,0.048536,0.50762,-0.53804,0.32907,0.048494,-0.15546,0.20153,0.55857,0.6352,-0.078977,-0.48708,0.53321,-0.51255,-0.46156,-0.84422,-0.25753,-1.3289,0.8648,1.1964,0.83926,-0.078898,0.4822,-0.43612,-1.0483,-0.74226,-0.4616,0.30365,-0.002485,-0.053573,1.0179,0.55881,1.1708,0.66069,0.35451,-0.56366,-2.5783,-1.6346,-0.15557,1.4256,0.3035,0.048567,0.8902,1.3748,-0.20639,-0.10445,-0.13007,0.48199,-1.5328,-0.15536,-0.30819,0.12516,-1.1502,-0.30864,-0.30862,-0.002595,0.58407,0.50757,0.55864,-0.13002,-0.25754,1.2729,0.38019,0.78829,-0.23194,-0.46161,-0.053464,-0.71664,-0.97171,-0.002479,-0.38511,-0.35961,-0.5382,0.63516,1.4515,0.73737,0.30361,-0.99725,-0.28308,0.68613,-0.35961,-0.2575,-0.30849,-0.30855,0.30367,1.2983,1.5022,-0.53803,-0.64014,-0.8696,0.048555,-0.2065,0.048555,0.20155,-0.002454,-0.61452,-0.71667,-0.28309,1.1963,1.8595,0.73722,-0.94625,-0.38506,-0.027993,-0.46156,0.27808,0.50769,0.099668,-0.58908,-0.76769,-0.69122,-0.15559,0.48214,-0.10456,1.7065,1.1965,1.4515,-1.0228,-1.7113,-1.0991,-0.027803,0.89009,0.12496,0.22699,0.30364,-0.33395,0.48209,-0.69108,0.12506,-0.58905,-0.23194,1.4768,1.6808,0.50752,-0.41055,-1.4563,-0.35954,-0.43616,0.71176,0.048647,0.22718,-0.76765,-0.41061,-0.41058,-0.028054,0.15057,0.17607,0.048555,1.1964,-0.74206,0.40552,1.1197,0.60979,-1.2267,-0.46157,-0.10449,0.45664,-0.13003,-0.18103,-0.23201,-0.69122,0.2527,1.1455,0.86475,0.43098,-1.4818,0.099497,0.38017,-0.43607,-0.99715,0.50754,0.50756,-0.10449,0.12513,-0.002436,-0.28295,0.023108,-0.20653,-0.30851,0.023059,-0.002399,-0.53809,-0.10452,0.099552,0.48214,0.022894,0.50756,0.048573,-0.30841,-0.30851,0.32908,-0.30858,-0.28311,-0.20656,0.32915,0.023041,-0.12994,0.07402,0.4057,-0.48711,-0.33404,0.048634,0.45665,-0.38513,0.25262,0.22705,0.45666,-0.078892,2.1655,-1.992,-1.3287,0.71166,0.20159,-0.79307,0.55845,0.20149,-0.23193,-0.46137,-0.30851,1.6297,0.43118,1.3495,-1.6348,-0.07899,-0.56359,0.30353,-0.18108,-0.20658,-0.053586,-0.20645,0.12507,-0.58902,0.048518,0.17611,-0.15546,0.074069,0.83929,0.40566,1.1453,-0.33409,-1.0227,-1.5328,2.1656,0.60974,-0.51265,-0.92078,-0.10457,-0.053482,-1.0483,-0.56357,1.1454,1.5789,-0.58904,-0.12994,-0.76771,0.099418,0.43119,1.1198,0.099515,-0.74206,-0.99715,-0.58916,-0.30849,0.27814,0.63517,0.38007,0.12502,0.17604,0.1251,0.30357,0.27803,-0.69106,-0.6655,-0.53795,0.43112,-0.51257,0.074013,0.40552,0.73715,0.25265,-1.4053,-0.89512,1.5278,3.492,-0.18098,-1.2523,-1.4563,-0.53817,-0.66564,-0.64015,0.6351,0.78833,0.60968,1.171,1.3239,-1.2268,-1.1247,-1.3033,0.30353,1.885,-0.027931,-1.5327,0.25248,-0.002472,0.25258,0.35455,0.20156,-0.28299,0.22707,0.50761,-0.7674,-0.84408,0.58413,-0.38503,-0.28305,-0.002491,1.8594,-0.18097,-1.0227,0.76254,1.2983,-1.0737,-1.4817,-0.23203,-0.15544,-0.48708,0.2271,0.38013,0.66074,0.17607,0.50767,0.58416,0.022931,-0.69119,-1.5838,0.099619,0.99222,0.43118,0.94134,2.1402,-0.53809,-1.686,-0.2067,-1.4563,-0.48706,0.023103,-0.23187,0.15048,0.32912,-0.002577,0.89009,0.60976,1.0945,0.63514,0.22712,-1.2777,-0.94617,-0.20663,0.048458,0.099454,0.22711,-0.078984,-0.53796,-0.1299,-0.2575,-0.38506,0.27808,-0.64,0.30362,0.15056,0.53312,0.30344,0.27794,0.15059,-0.6146,0.45667,0.45667,2.3953,-0.69108,-1.8134,0.048415,-0.48702,-1.0737,-0.23203,0.15057,0.048518,-0.18099,0.048366,0.048555,0.8138,1.9614,1.0689,-0.25717,-1.8898,-0.69128,-0.15565,0.30343,0.20147,0.022998,-0.41051,0.20158,0.71168,0.048629,0.023139,-0.35953,0.074033,-0.30847,-0.35951,-0.56353,0.074051,0.38005,0.15052,0.074044,-0.15551,-0.18101,0.22707,0.073965,-0.002454,-0.15538,0.83925,0.53318,0.073946,-0.15553,-0.10454,-0.61463,-0.92067,-0.92069,0.20164,0.074191,-0.078996,-0.002546,1.1962,1.4004,0.91586,-1.1246,-1.3542,-0.232,0.25257,-0.13012,0.4311,-0.078984,0.25256,-1.3797,-0.38502,-0.078996,0.66059,-0.15544,0.4821,0.63507,1.1196,-0.38492,-1.4562,0.63527,1.1964,-0.25753,-0.66569,-0.81866,-0.20657,-0.33409,-0.13008,0.43119,0.73724,0.12507,0.023041,0.048543,0.023023,0.78812,-2.1195,-0.10434,1.3749,1.4515,-0.86961,-0.97174,-0.18115,0.15042,-0.43612,-0.71648,0.66045,0.89022,0.32926,-0.027858,-0.99704,0.71176,0.71163,-0.13012,-1.2777,0.2015,0.022974,-0.002454,0.12501,-0.71652,-0.48699,0.20155,0.4056,0.25255,-0.23201,-0.33399,1.0432,1.1454,0.17611,-0.18097,-0.18103,-0.56359,-0.53819,-0.53814,-0.51257,-0.002418,0.50763,-0.43616,-2.0682,1.2728,2.3441,-0.15545,-0.64017,-0.89525,0.40544,1.9869,0.9416,-1.6602,0.25236,-0.41064,-0.84409,-0.027956,0.074057,-0.30846,0.43111,0.09957,-0.71649,0.04858,0.048585,0.73713,0.63507,0.68613,-0.18103,-0.25753,-0.002454,0.15059,-0.25757,-0.027944,-1.2268,-0.23201,0.40569,1.1964,-0.232,-0.1554,-0.43612,0.022894,0.22711,-0.74213,0.2015,0.48219,-0.23197,0.20151,-0.053525,-0.84415,0.32921,1.2474,0.76263,-0.38508,-0.79312,-0.027827,0.53322,0.66057,-1.0737,-0.58918,0.68609,-0.1043,-0.30854,-0.28315,0.43106,-0.12993,0.68629,-1.2775,-0.33414,0.83906,0.22708,-0.46158,0.66065,0.73715,0.60968,-0.1044,0.27809,-0.94625,-0.38508,0.53325,0.4312,0.09954,0.12496,-0.69111,0.48215,0.78823,-1.1501,-0.00251,-0.28314,-0.5636,-0.56344,0.66067,1.2474,0.17599,-0.64012,-0.92067,0.71165,1.1709,1.936,-0.33403,-1.2268,-0.84425,-0.13007,-0.28305,-0.20658,0.04861,-0.35941,-0.2066,-0.46145,0.91575,1.63,-0.18095,-1.1247,0.50756,-0.33409,-0.002552,0.50758,0.89018,-0.86961,-1.1247,-0.30843,-0.078874,-0.12983,-0.61467,-0.0791,0.63504,-0.12996,-0.002601,0.15059,-0.053421,-1.0226,0.30347,0.6863,1.2473,0.48213,-0.51265,-0.18098,-0.97164,-0.64018,-0.053495,0.48216,0.6353,-0.12993,-0.43599,-0.15556,-0.25755,-0.18105,0.048525,-0.79304,0.68608,0.27805,0.38001,0.96677,-1.2774,0.22708,0.22696,0.58413,-0.46148,0.81365,0.20151,-0.89511,-0.38502,-0.28311,-0.053531,0.25257,-0.20644,-0.58901,1.1196,0.48211,-0.12998,-0.28291,-1.1756,-0.30855,0.25251,-0.58913,0.81381,1.5278,0.9158,-0.89523,-0.51267,-1.3288,0.074081,0.099497,-0.23198,0.73723,0.50783,-0.48711,-0.20652,-0.10456,-0.20658,-0.61459,-0.46156,-0.13,0.81371,0.32907,1.0178,0.15068,-1.1246,0.073989,0.074069,-0.33406,-0.56359,0.30352,0.38006,0.76258,-0.28302,-0.66553,0.25265,0.66078,-0.63998,-0.94612,-0.58901,0.53299,-0.53823,0.022925,1.4769,1.3749,-0.1045,-0.71654,-0.51281,-0.41062,0.048641,-0.18092,-0.053451,-0.28294,-0.71663,0.40565,0.17603,0.35463,0.43119,0.25256,-0.35961,-0.81871,-0.23207,1.3239,0.45667,0.58429,-0.46154,-0.92073,-0.38521,0.78828,0.048683,-0.13002,-0.66568,-0.13005,-0.12997,-0.20653,-0.10453,0.40561,1.1452,1.1963,-0.48702,0.25252,-0.5125,-0.23199,-0.53804,-0.69102,-0.79305,0.32901,1.3748,0.023059,0.07402,-0.20649,-1.5329,-1.2521,1.2728,1.4259,0.40563,0.12493,-0.33407,-0.66561,-0.69113,-0.89509,0.25253,0.45661,0.40559,0.22712,0.27817,-0.078923,0.40554,-0.13001,0.1251,-1.1758,-1.0228,0.73737,3.1605,0.12512,-0.25756,-1.4818,-1.1249,0.022796,-0.10459,-0.33403,0.15055,-0.41042,-0.002399,-0.38496,0.58411,0.40559,0.73726,0.58422,0.073995,0.48219,0.60962,-0.028047,-0.79305,-0.89509,-0.23211,0.60952,-0.56364,-1.5327,0.48221,1.1965,-0.20647,0.20156,0.073965,0.15056,0.55866,-0.46159,-0.30861,0.12496,-0.56353,-0.97167,0.25254,2.0636,0.55872,-0.15543,-0.20647,-0.41061,-0.76778,-0.053531,-0.63984,0.81373,0.25262,0.32903,0.278,-0.20659,-0.81858,-0.6146,0.32918,0.25251,0.25259,0.17609,0.55858,-0.30854,-0.69101,-0.53796,0.53309,0.099491,-0.43597,1.7062,-0.385,-0.66553,-0.053513,0.40565,0.38013,-0.43609,-0.58911,-0.56365,-0.07885,0.55867,1.4258,-0.38511,-0.66566,0.38001,-0.53807,-1.2012,0.25262,0.45667,0.022998,0.68612,-0.15541,-0.81856,-0.28302,1.3238,1.0943,-0.33401,-1.8134,-0.10466,0.78822,1.1963,0.099693,-0.436,0.15045,-0.81865,-0.76769,0.20155,0.17612,-0.69116,0.35461,0.91578,-0.58898,0.17601,0.35456,0.35462,-0.027956,0.2781,-0.46145,-0.66562,1.4003,0.96671,-0.64011,-0.61454,-1.2267,-0.20653,0.2526,0.60971,-0.69116,-0.94625,2.2675,0.71162,0.023255,0.25262,-1.7367,0.32887,0.37995,0.35468,-0.15543,-0.00251,-0.13007,-0.181,0.12515,-0.18099,0.15051,-0.43595,-0.41057,0.45664,-0.027925,-0.53807,0.76257,0.40549,-0.30847,-1.5326,0.53317,1.6044,0.45652,0.25254,-0.15549,-0.38497,-1.5072,-0.10463,-0.33409,0.50762,0.04858,0.12504,-0.002461,0.43113,0.12509,0.099668,0.63512,-0.71659,-0.38505,-0.15549,-0.41058,-0.48711,0.96672,1.6554,-0.18091,-0.30855,-0.23201,-0.15557,-0.84419,-1.1502,0.022992,-0.078972,1.0943,0.45661,0.78817,0.176,-0.46152,0.17602,-0.46122,0.32912,0.7627,-0.3085,-0.81879,-0.7933,0.40562,0.99229,-0.41057,-0.48703,-0.053348,-0.51261,-0.41057,0.30346,0.048561,0.58417,0.89032,-0.41036,-0.12995,0.25245,-0.30864,0.12502,0.22718,-0.41049,-0.46154,-0.30855,0.83909,0.35459,0.55861,-0.027901,-0.028029,-0.43596,0.35453,0.30361,-0.33413,-0.69093,-1.2776,0.48205,0.60955,0.86477,1.1454,-0.12996,-1.0737,-0.92079,0.15055,0.68614,0.2526,0.35461,0.20158,-0.15555,-0.38501,-0.027998,0.27817,-0.5126,-0.33393,0.2526,0.12507,-0.33412,0.96678,1.0944,-0.41042,0.227,0.20135,-0.43613,-1.1756,-1.0481,-0.10452,-0.002521,-0.81855,0.58413,1.0431,-0.027974,0.83924,0.78834,0.099595,0.27811,-1.1245,-1.1248,-0.002485,0.30351,0.63515,0.38006,0.022974,-2.2977,0.30364,0.66062,0.022961,0.20164,0.4821,0.17611,-0.94617,0.023078,0.60959,-0.027969,-0.25756,0.048555,0.023078,0.71171,0.32912,-0.3594,0.50767,-0.1301,-0.46159,-0.48711,-0.25755,0.12502,0.38013,0.2781,-0.30843,0.074106,0.073977,0.278,0.22697,-0.69103,-0.053397,0.96678,0.48211,-1.2266,0.17609,0.76278,-0.1301,-0.74217,-0.13009,0.12502,-0.10442,-1.1245,0.9157,0.22705,-0.41056,-0.079008,-0.079002,-0.10454,1.1708,0.38016,0.27803,-1.5071,-0.15556,0.25257,0.81389,0.023072,-0.28308,-0.053555,0.022937,-0.69108,0.07394,0.22702,-0.078966,-0.51252,1.0178,0.58426,-0.002448,-0.66544,-0.027974,-0.61468,0.15051,0.81366,-0.13004,-0.56358,-0.61463,-0.15545,-0.002405,1.2728,-0.38506,-0.30851,0.40558,0.17604,-0.61457,0.023035,0.048531,0.50756,0.17609,0.20155,-0.41049,-0.43596,-0.66561,0.048549,0.50755,0.83924,-0.46159,-0.027969,0.73718,-0.30858,0.099601,0.35466,-0.35954,-0.43606,0.023072,0.43107,-0.64015,-0.86964,0.50768,1.6299,0.12499,-0.25757,-0.487,-0.43606,-0.89506,-0.002467,0.86466,1.1707,0.2781,0.78825,-0.53805,-0.23198,0.022913,0.048494,0.22708,-0.7166,-0.81856,-0.76758,-0.10447,0.048531,0.63514,0.53312,0.15057,0.20159,0.35461,0.53317,0.32911,-0.76769,-0.64013,-0.25755,0.58414,0.43126,0.81375,0.20164,-0.51257,-0.99722,-0.25765,-0.86969,-0.30855,0.60965,1.1964,-0.0535,-0.63997,-0.02798,-0.38504,0.17598,0.81356,-0.92068,0.55872,0.86482,0.55861,-1.0482,-0.38494,-0.23201,-0.002503,0.12504,-0.15545,0.40553,0.68607,-0.92054,0.3546,-0.12991,0.17601,-0.61465,-0.12999,0.17616,0.53318,-0.2321,-0.5636,0.074124,0.22717,-0.64017,-0.079081,0.25268,1.4514,-0.41058,-0.51254,0.30363,-0.15548,0.099521,-0.2066,-0.66566,-0.23203,0.60952,0.4567,-0.053427,-0.63996,-0.35945,-0.58916,0.96671,0.9669,1.7065,-0.81866,-0.81873,-0.51271,-0.18112,0.073984,-0.15545,-0.10441,-0.053433,-0.4106,0.53318,0.22719,0.40566,-0.002528,-0.28306,-0.46155,-0.15551,-0.46156,0.81372,0.68627,-0.181,-0.99714,0.073995,0.584,0.12501,0.0485,0.048555,-0.58901,0.38007,1.1707,-0.53792,-0.53793,-0.56358,-0.053464,-0.61449,0.22701,0.43107,0.48205,0.048543,0.048482,0.35462,0.43108,-0.15548,-0.28302,0.099626,0.38019,0.023047,-0.61463,-0.20658,-0.58912,-0.078947,-0.81856,0.30358,0.25254,0.2526,0.099559,-0.13003,-0.12999,0.55866,1.3493,0.27827,-0.69095,0.099448,-0.92065,0.09943,-0.2066,-0.48709,-0.33405,-0.56355,-0.20644,0.96669,0.22702,0.4056,0.60968,-0.6909,-1.0735,-0.13001,0.50761,-0.13008,-0.23196,0.81365,0.48209,0.25247,-0.18094,0.63514,-0.10458,-0.61458,-1.0737,0.55875,-0.86956,0.83922,0.73725,-0.30861,-0.64012,-0.079026,0.38015,-0.12996,-0.10445,0.125,0.12505,-0.027987,0.27803,0.68618,1.3239,1.528,-0.74216,-1.941,-1.7113,-0.43609,-0.35954,-0.51254,1.2471,0.048585,1.7062,0.074124,0.02309,0.17608,-0.33394,-0.38497,-0.027931,-0.002485,-0.69101,0.048525,0.50752,-0.079026,0.15057,0.17613,-0.079008,-0.33402,-0.30858,-0.18104,-0.15548,0.30358,0.25257,-0.9462,0.99234,1.528,-0.13,-0.53817,-1.0227,-0.5381,-0.3341,-0.53807,0.17605,0.63521,0.074069,0.27811,0.023029,-0.078977,0.15055,0.40557,0.074057,-0.028011,-0.97155,-1.2011,0.074026,0.76256,0.73714,1.3493,-0.94604,-0.58905,-0.69108,0.048531,0.27802,0.30357,0.20155,-0.027944,-0.15548,-0.078935,0.099564,-0.18106,-0.10446,-0.28303,-0.078917,0.22705,-0.02795,0.27805,0.32904,-1.0226,0.60972,0.17611,0.30358,-0.053544,0.17598,-0.69107,0.20159,0.20165,-0.20655,-0.20646,-0.41042,-0.079088,-0.20652,-0.027969,0.27812,0.58409,-0.48711,-0.028005,0.04858,0.074044,-0.99716,0.32905,0.99237,0.32917,-0.028005,0.073995,0.45667,-1.4817,0.048487,-0.002546,0.2015,0.43108,-0.1044,-0.027993,-0.51252,0.96661,0.76272,0.20154,-0.35949,-0.69104,-0.51255,-0.58904,-0.35947,-0.13001,0.15057,0.86464,0.27808,-0.13005,-0.51258,0.073995,0.17617,-0.538,0.22705,0.02298,-0.053488,0.60968,-0.28308,0.023029,0.50768,0.30361,-0.35953,-0.053433,0.023065,0.45664,-0.487,-0.25761,-0.13001,-0.43606,-0.74211,-0.079002,0.22707,0.43113,1.4257,-0.33393,-0.15542,-0.74206,0.43115,-0.28297,0.78813,1.1961,-0.027962,-0.41051,-0.41052,-0.53801,-0.61452,-0.38501,-0.25749,0.3546,0.099442,-0.002503,-0.8187,-0.053544,1.1198,0.78829,0.35472,0.17611,0.023059,-0.76771,-0.53811,-0.43612,-0.48705,0.022998,-0.15556,0.023023,0.50781,1.4004,0.78825,0.3036,-0.92067,-0.25759,-1.6093,0.81375,0.71174,0.022956,-0.25754,-0.38499,0.12508,-0.51249,0.15051,-0.027944,0.12507,1.4257,-0.078966,-0.078977,-0.92059,-0.38498,0.099399,0.12508,-0.46142,0.38027,0.20155,0.68602,-0.002516,-0.7931,-0.053476,0.023023,0.176,-0.25753,-0.283,1.1709,0.55876,-0.74206,0.048487,-0.079051,-0.46157,-0.13001,0.17607,-0.10448,0.048525,0.12507,-0.20648,-0.6146,0.023041,0.50767,0.35461,0.43113,0.048598,1.2729,-0.053427,-0.56362,-0.61465,-0.38521,-1.0227,-0.76755,0.099528,0.2781,0.048567,-0.28291,0.58414,0.53308,0.53311,0.63512,-0.23199,-0.33394,0.023084,-0.35955,0.15052,-0.74208,-0.12995,0.048543,0.25252,0.12501,0.15046,0.02309,-0.18094,-0.385,-0.002454,0.99227,0.43115,-0.41051,-0.2831,-0.46162,-0.46157,-0.15551,0.25259,0.074051,-0.2066,0.099595,0.35467,0.55873,-0.25747,0.048708,-0.20658,0.32894,-0.53808,-0.002595,-1.0991,0.074002,0.55857,0.63511,-0.61443,0.68616,-0.002394,-0.48702,-0.053482,0.12503,0.43106,-0.20649,0.30355,-1.0735,0.22703,-0.20644,-0.053573,0.35458,-0.51265,0.45665,0.78829,0.63523,-0.61461,-0.18114,-0.9972,-0.10449,0.89032,0.023065,0.099552,-0.23207,0.27809,-0.053421,-0.43602,-0.71659,-0.51265,-0.56366,1.2473,0.78823,-0.28303,-0.30848,-0.027834,0.60972,-0.053604,0.5076,1.5789,-0.51265,-1.8387,-1.3796,-0.15551,0.81356,1.3491,-0.181,-0.12993,0.20163,-0.18097,-0.283,-0.56354,-0.12999,0.73723,1.1199,-0.6656,-0.74216,-0.053598,0.27801,-0.028133,0.074013,0.43116,0.45674,-0.61455,-0.46161,-0.10447,-0.053476,0.2271,0.83931,0.20157,-0.33401,-0.41063,0.53317,-0.43612,-0.10439,-0.99723,0.58412,0.48218,-0.20655,0.27809,-0.20645,0.023023,0.32902,-0.20648,0.15065,0.53311,-0.89499,0.074118,0.48209,-0.58912,0.22706,0.53296,0.43103,0.17609,-0.20644,-1.0736,-0.30852,-0.053476,-0.078941,0.20156,0.074111,0.023078,-0.053378,0.8136,0.07402,-0.56365,-0.38502,0.15062,0.53314,-0.4106,0.32909,0.30364,0.32913,-0.61464,-0.92073,0.22711,0.22709,-0.05347,-0.46153,-0.053495,-0.35959,-0.10444,1.0178,1.1197,-0.74209,-0.38503,0.66055,-0.35946,-0.6911,0.68616,0.60969,-0.487,-0.10459,-0.7675,0.86473,-0.51259,-0.28305,-0.027956,-0.46164,0.1505,0.45662,0.27812,-0.35946,-0.51252,-0.002479,0.38008,-0.283,-0.71656,0.38002,0.73718,0.15051,-0.053458,-0.48709,0.023108,1.0178,0.074051,0.023029,-0.94625,-0.6657,-0.15549,0.048567,-0.53803,0.15056,1.1709,-0.51262,0.32905,0.7116,-0.23201,-0.12993,-0.23188,0.20153,0.20158,-0.18109,-0.28301,-0.18091,-0.053421,1.1706,0.45656,-0.20652,-0.41054,-0.46159,-0.48702,-0.79307,0.32901,0.12504,0.60977,0.22718,-0.078874,-0.002461,-0.00251,-0.41064,-0.41061,0.15047,0.38003,0.53319,-0.15548,0.15064,0.43119,0.6607,-0.48702,-0.56365,-0.69106,-0.10454,0.099552,-0.13002,0.40571,0.48216,0.023023,-0.46153,-0.079093,0.12504,-0.46162,0.27813,0.45669,0.25265,-0.028018,-0.38499,0.43112,0.38001,-1.1756,-0.64006,0.43103,-0.15547,-0.35948,0.78813,0.023017,0.22706,-0.43598,-0.28303,-0.4614,0.96681,1.1452,0.22691,-0.33406,-0.4871,0.022992,-0.58913,-0.9972,-0.027974,0.91584,0.099577,0.8138,0.20162,0.22708,-0.76767,-0.28302,-0.5891,-0.48708,-0.48711,0.176,-0.002418,1.0688,0.048536,-0.38507,-0.078972,0.48223,-0.12997,1.4512,-0.002436,0.099613,-2.0428,-0.20658,0.023121,0.7626,0.099461,0.15054,-0.23203,-0.25743,0.3291,0.50754,-0.43602,-0.46152,-0.15549,0.71177,-0.002387,-0.078898,-0.079057,0.12498,-0.43601,-0.12998,-0.15559,0.12503,-0.079075,0.27811,1.0434,1.0943,-0.25753,-0.6147,-0.53803,0.023041,0.58419,0.17609,-0.13002,-0.56368,-0.078959,-0.6655,-0.027969,0.022974,-0.33399,-0.18102,0.48199,0.43119,0.71181,0.43113,0.4822,0.15042,-0.48721,-1.405,0.73723,-0.41052,-0.51258,0.43108,0.43107,0.20152,0.099552,-0.35954,-0.33404,0.048555,0.099668,0.27809,-0.18106,0.27814,0.68628,-0.20654,-1.0227,0.022956,0.073928,0.15052,-0.895,0.20162,0.50763,0.32908,0.17602,0.35459,-0.25752,-0.46149,-0.028029,-0.79321,0.099559,0.76266,0.074081,-0.66564,0.68615,0.35467,-0.002497,-0.43606,-0.23196,0.27811,0.43112,-0.76744,-0.41057,0.27798,0.76261,0.07402,-0.9206,-1.2521,-0.12998,0.43107,0.68612,0.60963,0.38003,0.30355,0.27809,-0.15549,-0.28299,0.32918,-0.33402,-0.13,-0.6401,0.25265,-0.10439,0.12507,0.073904,-0.74211,-0.41063,0.53304,0.17615,0.89027,0.0485,-0.30846,-0.25743,0.58424,-0.5637,-0.13011,0.40552,-0.46148,-0.4105,-0.10452,0.2525,-0.18097,1.0944,0.38019,-0.43612,-0.15562,-0.4361,0.48222,1.3495,0.30363,-0.69119,-0.46154,-0.9462,-0.64014,-0.027969,0.12501,-0.38508,-0.28303,0.17609,0.27814,0.3291,-0.002479,-0.2575,0.12513,0.76276,0.45652,0.68603,0.48211,-0.25749,-1.0481,-1.1757,0.40548,0.099601,0.50774,0.12505,-0.89511,-0.07899,0.25254,-0.23196,0.20153,0.73715,0.40561,-0.94616,0.048458,0.22704,0.45668,-0.81861,0.45664,-0.10433,-0.053433,0.25249,-0.28304,-0.25753,-0.18101,-0.002491,0.58404,-0.71651,-0.12991,0.27804,-0.12999,0.12507,0.63516,0.58422,0.25254,-0.30847,0.30361,-0.46154,-0.48708,-1.1247,0.38004,1.1707,-0.078825,0.099534,-0.43607,-0.46151,-0.30845,0.96668,0.17607,-0.56348,-0.28305,0.32902,0.048506,-0.053458,-0.46155,0.78811,0.99226,-0.53795,-0.58907,0.073984,-0.64006,0.20155,-0.10447,-0.002472,0.38015,0.78834,-0.15548,0.27794,-0.13005,-0.002418,-0.92063,-0.10452,0.20158,0.074069,0.074044,-0.02798,-0.23207,-0.51266,0.48226,1.834,0.45672,-1.4307,-0.35962,0.074038,-0.10464,0.023023,0.58413,0.12501,-0.71659,-0.79307,0.43108,-0.58902,0.17606,-0.002436,0.2526,0.20159,0.02301,1.2217,-0.15539,-0.64004,-0.2575,0.40558,0.15051,-0.20652,-0.58909,-0.74209,-0.13005,0.074038,0.48211,-0.35953,-0.81854,0.3546,0.96676,0.68623,0.35461,-0.1045,-0.3086,-0.13001,0.15054,-1.0482,-0.64014,-0.61466,1.4514,1.8595,-0.078727,-0.74218,-0.53812,-0.38509,-0.20657,-0.92072,-0.23206,0.35458,0.53305,-0.35952,0.9668,0.5842,0.15059,-0.053421,-0.48701,-0.4361,-0.43601,0.63514,0.53315,0.15053,-0.43606,-0.23205,0.099521,-0.30849,-0.053513,-0.002497,0.17614,0.50777,-0.53811,-0.23196,-0.20647,-0.002516,0.6605,0.40555,0.15056,-0.41043,0.2271,0.3546,-0.30841,-0.20653,-0.35956,-0.6657,-0.13007,-0.05339,1.1454,0.38007,1.0433,-0.15551,0.023023,-0.81869,-0.69107,-0.43606,0.20154,0.45661,-0.28303,-0.18097,-0.232,0.30359,-0.10443,1.0178,-0.23201,0.43112,0.83921,0.15049,-0.028066,-0.2065,-0.56353,-0.33403,-0.30854,-0.71653,0.40555,0.023035,-0.385,-0.1299,0.30356,0.60959,0.30363,-0.027938,-0.51257,0.22707,-0.46162,-0.002436,0.099619,0.76269,0.048463,-0.66565,0.32911
