,0,1,2,3,4,5,6,7,8,9,10,11,12,13,14,15,16,17,18,19,20,21,22,23,24,25,26,27,28,29,30,31,32,33,34,35,36,37,38,39,40,41,42,43,44,45,46,47,48,49,50,51,52,53,54,55,56,57,58,59,60,61,62,63,64,65,66,67,68,69,70,71,72,73,74,75,76,77,78,79,80,81,82,83,84,85,86,87,88,89,90,91,92,93,94,95,96,97,98,99,100,101,102,103,104,105,106,107,108,109,110,111,112,113,114,115,116,117,118,119,120,121,122,123,124,125,126,127,128,129,130,131,132,133,134,135,136,137,138,139,140,141,142,143,144,145,146,147,148,149,150,151,152,153,154,155,156,157,158,159,160,161,162,163,164,165,166,167,168,169,170,171,172,173,174,175,176,177,178,179,180,181,182,183,184,185,186,187,188,189,190,191,192,193,194,195,196,197,198,199,200,201,202,203,204,205,206,207,208,209,210,211,212,213,214,215,216,217,218,219,220,221,222,223,224,225,226,227,228,229,230,231,232,233,234,235,236,237,238,239,240,241,242,243,244,245,246,247,248,249,250,251,252,253,254,255,256,257,258,259,260,261,262,263,264,265,266,267,268,269,270,271,272,273,274,275,276,277,278,279,280,281,282,283,284,285,286,287,288,289,290,291,292,293,294,295,296,297,298,299,300,301,302,303,304,305,306,307,308,309,310,311,312,313,314,315,316,317,318,319,320,321,322,323,324,325,326,327,328,329,330,331,332,333,334,335,336,337,338,339,340,341,342,343,344,345,346,347,348,349,350,351,352,353,354,355,356,357,358,359,360,361,362,363,364,365,366,367,368,369,370,371,372,373,374,375,376,377,378,379,380,381,382,383,384,385,386,387,388,389,390,391,392,393,394,395,396,397,398,399,400,401,402,403,404,405,406,407,408,409,410,411,412,413,414,415,416,417,418,419,420,421,422,423,424,425,426,427,428,429,430,431,432,433,434,435,436,437,438,439,440,441,442,443,444,445,446,447,448,449,450,451,452,453,454,455,456,457,458,459,460,461,462,463,464,465,466,467,468,469,470,471,472,473,474,475,476,477,478,479,480,481,482,483,484,485,486,487,488,489,490,491,492,493,494,495,496,497,498,499,500,501,502,503,504,505,506,507,508,509,510,511,512,513,514,515,516,517,518,519,520,521,522,523,524,525,526,527,528,529,530,531,532,533,534,535,536,537,538,539,540,541,542,543,544,545,546,547,548,549,550,551,552,553,554,555,556,557,558,559,560,561,562,563,564,565,566,567,568,569,570,571,572,573,574,575,576,577,578,579,580,581,582,583,584,585,586,587,588,589,590,591,592,593,594,595,596,597,598,599,600,601,602,603,604,605,606,607,608,609,610,611,612,613,614,615,616,617,618,619,620,621,622,623,624,625,626,627,628,629,630,631,632,633,634,635,636,637,638,639,640,641,642,643,644,645,646,647,648,649,650,651,652,653,654,655,656,657,658,659,660,661,662,663,664,665,666,667,668,669,670,671,672,673,674,675,676,677,678,679,680,681,682,683,684,685,686,687,688,689,690,691,692,693,694,695,696,697,698,699,700,701,702,703,704,705,706,707,708,709,710,711,712,713,714,715,716,717,718,719,720,721,722,723,724,725,726,727,728,729,730,731,732,733,734,735,736,737,738,739,740,741,742,743,744,745,746,747,748,749,750,751,752,753,754,755,756,757,758,759,760,761,762,763,764,765,766,767,768,769,770,771,772,773,774,775,776,777,778,779,780,781,782,783,784,785,786,787,788,789,790,791,792,793,794,795,796,797,798,799,800,801,802,803,804,805,806,807,808,809,810,811,812,813,814,815,816,817,818,819,820,821,822,823,824,825,826,827,828,829,830,831,832,833,834,835,836,837,838,839,840,841,842,843,844,845,846,847,848,849,850,851,852,853,854,855,856,857,858,859,860,861,862,863,864,865,866,867,868,869,870,871,872,873,874,875,876,877,878,879,880,881,882,883,884,885,886,887,888,889,890,891,892,893,894,895,896,897,898,899,900,901,902,903,904,905,906,907,908,909,910,911,912,913,914,915,916,917,918,919,920,921,922,923,924,925,926,927,928,929,930,931,932,933,934,935,936,937,938,939,940,941,942,943,944,945,946,947,948,949,950,951,952,953,954,955,956,957,958,959,960,961,962,963,964,965,966,967,968,969,970,971,972,973,974,975,976,977,978,979,980,981,982,983,984,985,986,987,988,989,990,991,992,993,994,995,996,997,998,999,1000,1001,1002,1003,1004,1005,1006,1007,1008,1009,1010,1011,1012,1013,1014,1015,1016,1017,1018,1019,1020,1021,1022,1023,1024,1025,1026,1027,1028,1029,1030,1031,1032,1033,1034,1035,1036,1037,1038,1039,1040,1041,1042,1043,1044,1045,1046,1047,1048,1049,1050,1051,1052,1053,1054,1055,1056,1057,1058,1059,1060,1061,1062,1063,1064,1065,1066,1067,1068,1069,1070,1071,1072,1073,1074,1075,1076,1077,1078,1079,1080,1081,1082,1083,1084,1085,1086,1087,1088,1089,1090,1091,1092,1093,1094,1095,1096,1097,1098,1099,1100,1101,1102,1103,1104,1105,1106,1107,1108,1109,1110,1111,1112,1113,1114,1115,1116,1117,1118,1119,1120,1121,1122,1123,1124,1125,1126,1127,1128,1129,1130,1131,1132,1133,1134,1135,1136,1137,1138,1139,1140,1141,1142,1143,1144,1145,1146,1147,1148,1149,1150,1151,1152,1153,1154,1155,1156,1157,1158,1159,1160,1161,1162,1163,1164,1165,1166,1167,1168,1169,1170,1171,1172,1173,1174,1175,1176,1177,1178,1179,1180,1181,1182,1183,1184,1185,1186,1187,1188,1189,1190,1191,1192,1193,1194,1195,1196,1197,1198,1199,1200,1201,1202,1203,1204,1205,1206,1207,1208,1209,1210,1211,1212,1213,1214,1215,1216,1217,1218,1219,1220,1221,1222,1223,1224,1225,1226,1227,1228,1229,1230,1231,1232,1233,1234,1235,1236,1237,1238,1239,1240,1241,1242,1243,1244,1245,1246,1247,1248,1249,1250,1251,1252,1253,1254,1255,1256,1257,1258,1259,1260,1261,1262,1263,1264,1265,1266,1267,1268,1269,1270,1271,1272,1273,1274,1275,1276,1277,1278,1279,1280,1281,1282,1283,1284,1285,1286,1287,1288,1289,1290,1291,1292,1293,1294,1295,1296,1297,1298,1299,1300,1301,1302,1303,1304,1305,1306,1307,1308,1309,1310,1311,1312,1313,1314,1315,1316,1317,1318,1319,1320,1321,1322,1323,1324,1325,1326,1327,1328,1329,1330,1331,1332,1333,1334,1335,1336,1337,1338,1339,1340,1341,1342,1343,1344,1345,1346,1347,1348,1349,1350,1351,1352,1353,1354,1355,1356,1357,1358,1359,1360,1361,1362,1363,1364,1365,1366,1367,1368,1369,1370,1371,1372,1373,1374,1375,1376,1377,1378,1379,1380,1381,1382,1383,1384,1385,1386,1387,1388,1389,1390,1391,1392,1393,1394,1395,1396,1397,1398,1399,1400,1401,1402,1403,1404,1405,1406,1407,1408,1409,1410,1411,1412,1413,1414,1415,1416,1417,1418,1419,1420,1421,1422,1423,1424,1425,1426,1427,1428,1429,1430,1431,1432,1433,1434,1435,1436,1437,1438,1439,1440,1441,1442,1443,1444,1445,1446,1447,1448,1449,1450,1451,1452,1453,1454,1455,1456,1457,1458,1459,1460,1461,1462,1463,1464,1465,1466,1467,1468,1469,1470,1471,1472,1473,1474,1475,1476,1477,1478,1479,1480,1481,1482,1483,1484,1485,1486,1487,1488,1489,1490,1491,1492,1493,1494,1495,1496,1497,1498,1499,1500,1501,1502,1503,1504,1505,1506,1507,1508,1509,1510,1511,1512,1513,1514,1515,1516,1517,1518,1519,1520,1521,1522,1523,1524,1525,1526,1527,1528,1529,1530,1531,1532,1533,1534,1535,1536,1537,1538,1539,1540,1541,1542,1543,1544,1545,1546,1547,1548,1549,1550,1551,1552,1553,1554,1555,1556,1557,1558,1559,1560,1561,1562,1563,1564,1565,1566,1567,1568,1569,1570,1571,1572,1573,1574,1575,1576,1577,1578,1579,1580,1581,1582,1583,1584,1585,1586,1587,1588,1589,1590,1591,1592,1593,1594,1595,1596,1597,1598,1599,1600,1601,1602,1603,1604,1605,1606,1607,1608,1609,1610,1611,1612,1613,1614,1615,1616,1617,1618,1619,1620,1621,1622,1623,1624,1625,1626,1627,1628,1629,1630,1631,1632,1633,1634,1635,1636,1637,1638,1639,1640,1641,1642,1643,1644,1645,1646,1647,1648,1649,1650,1651,1652,1653,1654,1655,1656,1657,1658,1659,1660,1661,1662,1663,1664,1665,1666,1667,1668,1669,1670,1671,1672,1673,1674,1675,1676,1677,1678,1679,1680,1681,1682,1683,1684,1685,1686,1687,1688,1689,1690,1691,1692,1693,1694,1695,1696,1697,1698,1699,1700,1701,1702,1703,1704,1705,1706,1707,1708,1709,1710,1711,1712,1713,1714,1715,1716,1717,1718,1719,1720,1721,1722,1723,1724,1725,1726,1727,1728,1729,1730,1731,1732,1733,1734,1735,1736,1737,1738,1739,1740,1741,1742,1743,1744,1745,1746,1747,1748,1749,1750,1751,1752,1753,1754,1755,1756,1757,1758,1759,1760,1761,1762,1763,1764,1765,1766,1767,1768,1769,1770,1771,1772,1773,1774,1775,1776,1777,1778,1779,1780,1781,1782,1783,1784,1785,1786,1787,1788,1789,1790,1791,1792,1793,1794,1795,1796,1797,1798,1799,1800,1801,1802,1803,1804,1805,1806,1807,1808,1809,1810,1811,1812,1813,1814,1815,1816,1817,1818,1819,1820,1821,1822,1823,1824,1825,1826,1827,1828,1829,1830,1831,1832,1833,1834,1835,1836,1837,1838,1839,1840,1841,1842,1843,1844,1845,1846,1847,1848,1849,1850,1851,1852,1853,1854,1855,1856,1857,1858,1859,1860,1861,1862,1863,1864,1865,1866,1867,1868,1869,1870,1871,1872,1873,1874,1875,1876,1877,1878,1879,1880,1881,1882,1883,1884,1885,1886,1887,1888,1889,1890,1891,1892,1893,1894,1895,1896,1897,1898,1899,1900,1901,1902,1903,1904,1905,1906,1907,1908,1909,1910,1911,1912,1913,1914,1915,1916,1917,1918,1919,1920,1921,1922,1923,1924,1925,1926,1927,1928,1929,1930,1931,1932,1933,1934,1935,1936,1937,1938,1939,1940,1941,1942,1943,1944,1945,1946,1947,1948,1949,1950,1951,1952,1953,1954,1955,1956,1957,1958,1959,1960,1961,1962,1963,1964,1965,1966,1967,1968,1969,1970,1971,1972,1973,1974,1975,1976,1977,1978,1979,1980,1981,1982,1983,1984,1985,1986,1987,1988,1989,1990,1991,1992,1993,1994,1995,1996,1997,1998,1999,2000,2001,2002,2003,2004,2005,2006,2007,2008,2009,2010,2011,2012,2013,2014,2015,2016,2017,2018,2019,2020,2021,2022,2023,2024,2025,2026,2027,2028,2029,2030,2031,2032,2033,2034,2035,2036,2037,2038,2039,2040,2041,2042,2043,2044,2045,2046,2047,2048,2049,2050,2051,2052,2053,2054,2055,2056,2057,2058,2059,2060,2061,2062,2063,2064,2065,2066,2067,2068,2069,2070,2071,2072,2073,2074,2075,2076,2077,2078,2079,2080,2081,2082,2083,2084,2085,2086,2087,2088,2089,2090,2091,2092,2093,2094,2095,2096,2097,2098,2099,2100,2101,2102,2103,2104,2105,2106,2107,2108,2109,2110,2111,2112,2113,2114,2115,2116,2117,2118,2119,2120,2121,2122,2123,2124,2125,2126,2127,2128,2129,2130,2131,2132,2133,2134,2135,2136,2137,2138,2139,2140,2141,2142,2143,2144,2145,2146,2147,2148,2149,2150,2151,2152,2153,2154,2155,2156,2157,2158,2159,2160,2161,2162,2163,2164,2165,2166,2167,2168,2169,2170,2171,2172,2173,2174,2175,2176,2177,2178,2179,2180,2181,2182,2183,2184,2185,2186,2187,2188,2189,2190,2191,2192,2193,2194,2195,2196,2197,2198,2199,2200,2201,2202,2203,2204,2205,2206,2207,2208,2209,2210,2211,2212,2213,2214,2215,2216,2217,2218,2219,2220,2221,2222,2223,2224,2225,2226,2227,2228,2229,2230,2231,2232,2233,2234,2235,2236,2237,2238,2239,2240,2241,2242,2243,2244,2245,2246,2247,2248,2249,2250,2251,2252,2253,2254,2255,2256,2257,2258,2259,2260,2261,2262,2263,2264,2265,2266,2267,2268,2269,2270,2271,2272,2273,2274,2275,2276,2277,2278,2279,2280,2281,2282,2283,2284,2285,2286,2287,2288,2289,2290,2291,2292,2293,2294,2295,2296,2297,2298,2299,2300,2301,2302,2303,2304,2305,2306,2307,2308,2309,2310,2311,2312,2313,2314,2315,2316,2317,2318,2319,2320,2321,2322,2323,2324,2325,2326,2327,2328,2329,2330,2331,2332,2333,2334,2335,2336,2337,2338,2339,2340,2341,2342,2343,2344,2345,2346,2347,2348,2349,2350,2351,2352,2353,2354,2355,2356,2357,2358,2359,2360,2361,2362,2363,2364,2365,2366,2367,2368,2369,2370,2371,2372,2373,2374,2375,2376,2377,2378,2379,2380,2381,2382,2383,2384,2385,2386,2387,2388,2389,2390,2391,2392,2393,2394,2395,2396,2397,2398,2399,2400,2401,2402,2403,2404,2405,2406,2407,2408,2409,2410,2411,2412,2413,2414,2415,2416,2417,2418,2419,2420,2421,2422,2423,2424,2425,2426,2427,2428,2429,2430,2431,2432,2433,2434,2435,2436,2437,2438,2439,2440,2441,2442,2443,2444,2445,2446,2447,2448,2449,2450,2451,2452,2453,2454,2455,2456,2457,2458,2459,2460,2461,2462,2463,2464,2465,2466,2467,2468,2469,2470,2471,2472,2473,2474,2475,2476,2477,2478,2479,2480,2481,2482,2483,2484,2485,2486,2487,2488,2489,2490,2491,2492,2493,2494,2495,2496,2497,2498,2499,2500,2501,2502,2503,2504,2505,2506,2507,2508,2509,2510,2511,2512,2513,2514,2515,2516,2517,2518,2519,2520,2521,2522,2523,2524,2525,2526,2527,2528,2529,2530,2531,2532,2533,2534,2535,2536,2537,2538,2539,2540,2541,2542,2543,2544,2545,2546,2547,2548,2549,2550,2551,2552,2553,2554,2555,2556,2557,2558,2559,2560,2561,2562,2563,2564,2565,2566,2567,2568,2569,2570,2571,2572,2573,2574,2575,2576,2577,2578,2579,2580,2581,2582,2583,2584,2585,2586,2587,2588,2589,2590,2591,2592,2593,2594,2595,2596,2597,2598,2599,2600,2601,2602,2603,2604,2605,2606,2607,2608,2609,2610,2611,2612,2613,2614,2615,2616,2617,2618,2619,2620,2621,2622,2623,2624,2625,2626,2627,2628,2629,2630,2631,2632,2633,2634,2635,2636,2637,2638,2639,2640,2641,2642,2643,2644,2645,2646,2647,2648,2649,2650,2651,2652,2653,2654,2655,2656,2657,2658,2659,2660,2661,2662,2663,2664,2665,2666,2667,2668,2669,2670,2671,2672,2673,2674,2675,2676,2677,2678,2679,2680,2681,2682,2683,2684,2685,2686,2687,2688,2689,2690,2691,2692,2693,2694,2695,2696,2697,2698,2699,2700,2701,2702,2703,2704,2705,2706,2707,2708,2709,2710,2711,2712,2713,2714,2715,2716,2717,2718,2719,2720,2721,2722,2723,2724,2725,2726,2727,2728,2729,2730,2731,2732,2733,2734,2735,2736,2737,2738,2739,2740,2741,2742,2743,2744,2745,2746,2747,2748,2749,2750,2751,2752,2753,2754,2755,2756,2757,2758,2759,2760,2761,2762,2763,2764,2765,2766,2767,2768,2769,2770,2771,2772,2773,2774,2775,2776,2777,2778,2779,2780,2781,2782,2783,2784,2785,2786,2787,2788,2789,2790,2791,2792,2793,2794,2795,2796,2797,2798,2799,2800,2801,2802,2803,2804,2805,2806,2807,2808,2809,2810,2811,2812,2813,2814,2815,2816,2817,2818,2819,2820,2821,2822,2823,2824,2825,2826,2827,2828,2829,2830,2831,2832,2833,2834,2835,2836,2837,2838,2839,2840,2841,2842,2843,2844,2845,2846,2847,2848,2849,2850,2851,2852,2853,2854,2855,2856,2857,2858,2859,2860,2861,2862,2863,2864,2865,2866,2867,2868,2869,2870,2871,2872,2873,2874,2875,2876,2877,2878,2879,2880,2881,2882,2883,2884,2885,2886,2887,2888,2889,2890,2891,2892,2893,2894,2895,2896,2897,2898,2899,2900,2901,2902,2903,2904,2905,2906,2907,2908,2909,2910,2911,2912,2913,2914,2915,2916,2917,2918,2919,2920,2921,2922,2923,2924,2925,2926,2927,2928,2929,2930,2931,2932,2933,2934,2935,2936,2937,2938,2939,2940,2941,2942,2943,2944,2945,2946,2947,2948,2949,2950,2951,2952,2953,2954,2955,2956,2957,2958,2959,2960,2961,2962,2963,2964,2965,2966,2967,2968,2969,2970,2971,2972,2973,2974,2975,2976,2977,2978,2979,2980,2981,2982,2983,2984,2985,2986,2987,2988,2989,2990,2991,2992,2993,2994,2995,2996,2997,2998,2999
0,-0.18099,-0.18099,-0.18099,-0.053488,0.048512,0.32905,-0.18099,-0.15548,0.023054,0.22705,-0.51252,-0.41052,0.17604,0.30359,0.2526,0.15057,-0.078959,-0.002467,0.15051,-0.10449,-0.10446,-0.10449,0.35456,-0.12998,-0.15545,-0.18097,-0.027974,0.12503,-0.027987,-0.38502,0.20155,0.30358,-0.053451,-0.12998,-0.38505,0.023059,0.17607,-0.053476,0.074038,0.22707,0.66062,0.25255,-0.28301,-0.28298,-0.25745,-0.10446,-0.078959,0.023054,-0.002479,-0.30853,-0.002491,0.20158,-0.12998,0.12502,0.55857,0.22705,-0.51251,-0.38499,-0.027956,0.32908,0.099521,-0.10445,-0.30849,-0.10452,0.81359,-0.027944,-0.027956,-0.33399,-0.18098,0.074051,-0.027962,-0.027993,0.074002,-0.027969,-0.10445,0.048567,-0.078984,0.12504,0.20156,-0.23199,-0.28299,0.048518,-0.027962,0.074062,0.12507,0.048536,-0.12999,-0.41051,0.35456,0.96658,0.02301,-0.28295,-0.43598,-0.18097,-0.12996,-0.078953,-0.385,0.048531,0.30353,0.76257,0.20157,0.099564,-0.15545,-0.43598,-0.053482,-0.10447,-0.027987,-0.079021,-0.002503,0.20154,0.023054,-0.12994,0.53309,0.099552,-0.25746,-0.18097,0.099521,-0.64006,-0.053488,0.32907,-0.10444,-0.053433,0.023047,-0.10449,-0.027969,0.099564,0.35459,0.074002,-0.00251,-0.2065,-0.25748,0.048536,0.099564,0.22708,-0.30845,-0.18098,0.20153,0.17604,0.15054,-0.20648,-0.078984,0.22704,-0.002479,0.099534,-0.25746,-0.35947,0.12504,0.25254,0.023041,-0.053464,-0.078947,-0.12999,-0.30852,-0.07899,0.15056,0.17604,0.074026,-0.002443,-0.027938,-0.027956,0.43107,0.32904,-0.10447,-0.027956,-0.002436,-0.20649,-0.25751,-0.20649,0.22702,0.66058,0.048512,-0.38502,-0.51249,-0.10445,-0.18094,-0.053421,0.35457,0.66057,0.38004,-0.12999,0.12505,-0.12997,-0.487,-0.13,-0.12998,0.099552,0.099528,-0.078996,0.32908,-0.053439,-0.078984,0.30356,0.40558,0.074038,-0.35951,-0.053464,-0.43599,-0.002467,0.12502,-0.027969,0.074069,0.12504,0.023054,0.20159,0.15054,-0.15549,-0.10447,0.023023,0.023029,-0.12998,-0.027962,-0.078966,-0.078977,0.048555,0.074051,0.074057,0.22704,0.074026,0.25254,-0.027974,-0.12995,-0.46148,-0.027969,0.048555,0.074038,-0.002436,0.048536,-0.078977,0.35455,0.17602,-0.28298,-0.002485,-0.02798,-0.20646,-0.23196,-0.35948,-0.20647,-0.078972,0.27804,0.099515,0.17604,0.099559,0.048561,-0.053476,-0.027969,-0.18098,0.17607,0.15056,0.38004,0.023035,-0.181,-0.181,-0.334,0.048567,-0.078959,0.023084,-0.078953,0.20155,0.048531,0.20156,0.099528,0.12504,-0.41052,-0.30848,0.15054,-0.002467,-0.002461,-0.079002,-0.181,-0.078959,0.074062,0.25259,0.048567,0.074062,-0.18099,-0.20652,0.20153,0.35454,0.048536,0.048549,-0.30848,-0.18097,-0.28294,0.15057,0.63509,-0.2575,0.38004,-0.079008,0.074026,-0.25749,-0.20648,-0.25747,-0.20644,-0.25747,0.27808,0.6861,0.25256,-0.02798,-0.28301,-0.027987,-0.027987,-0.078959,-0.078966,-0.027944,0.048549,-0.12999,-0.181,-0.002467,0.023017,0.048531,0.15055,0.12504,-0.078941,-0.18094,0.048555,0.45658,-0.13,-0.028005,0.023023,-0.23199,-0.002467,0.04858,-0.25749,-0.2575,-0.002467,-0.10449,-0.078972,0.40556,0.43106,-0.002472,-0.15548,-0.15548,-0.20646,0.09957,0.32908,0.099546,-0.053488,0.023047,-0.002491,0.27805,-0.25745,-0.002467,-0.18098,-0.35948,-0.23197,0.55859,0.25256,0.22701,-0.20652,-0.15548,-0.078947,-0.18099,-0.15546,0.048567,0.074038,-0.12995,0.25257,0.7116,0.074013,-0.078984,-0.10447,-0.30851,-0.25751,-0.053458,0.099564,-0.078947,-0.053451,0.074013,0.20155,0.20158,0.099559,0.32903,-0.25752,-0.18097,0.023065,-0.053433,-0.2065,-0.00251,-0.18102,-0.10448,-0.18097,0.074038,0.15057,0.12509,-0.18098,0.15054,0.7626,0.25255,-0.28301,-0.3085,0.27808,-0.12996,-0.4105,-0.33398,0.15057,0.32908,-0.028011,-0.10449,0.074051,0.17606,-0.18098,-0.35951,-0.078972,0.2271,0.074062,0.048536,0.30355,-0.02798,-0.05347,0.048549,0.20155,-0.2065,-0.20648,0.074087,-0.18095,-0.078959,0.35458,0.048518,0.17604,-0.232,-0.23202,0.22704,-0.46149,-0.078941,0.3801,0.15055,-0.15549,-0.30851,-0.15549,0.43107,0.32905,0.15056,-0.15546,-0.15545,0.099564,-0.002461,-0.23199,0.15055,0.20153,0.09954,0.17605,-0.027969,-0.20647,-0.3085,0.048518,0.15056,-0.053446,-0.078959,-0.078984,0.12503,0.53307,-0.078959,-0.15547,-0.15548,-0.027962,0.15059,-0.28298,-0.181,0.099515,0.17604,0.27805,-0.07899,-0.078966,-0.078947,-0.078947,-0.12999,0.20157,0.15055,-0.15549,-0.13,0.25255,0.22707,-0.23199,-0.38502,0.30356,0.099588,-0.20646,-0.12995,0.27805,0.30355,0.048543,-0.002491,-0.28301,-0.07899,-0.002461,-0.002436,0.023054,0.023029,0.22702,-0.12998,-0.12996,-0.004307,0.1232,0.27621,0.37822,0.37822,0.021195,0.0977,0.1232,0.072198,-0.10445,0.048543,-0.053476,-0.15548,-0.12997,-0.002479,0.22705,0.099528,0.048531,-0.18097,-0.10446,-0.25749,-0.078947,-0.05347,0.30356,0.45656,-0.13,-0.002448,-0.078966,-0.027969,-0.15549,-0.25749,0.023072,0.099534,0.22706,-0.15548,-0.002485,-0.15549,-0.15551,-0.1045,0.25258,0.12507,0.27809,-0.15543,-0.3595,-0.10448,-0.12999,-0.1045,0.45655,0.099528,-0.053476,-0.053458,0.22707,-0.002472,0.27806,-0.38497,-0.334,-0.12998,-0.002479,0.023023,0.048555,0.3801,0.15055,-0.002467,-0.10447,0.15057,-0.1555,0.023017,0.12504,0.20154,-0.2575,-0.12993,-0.12996,-0.053482,0.048567,0.17602,-0.078984,0.023054,0.12505,0.15057,0.12505,-0.002443,-0.15548,-0.38501,-0.20649,0.20155,0.15057,0.50755,0.074038,-0.13,-0.002448,-0.027956,-0.38501,-0.23199,0.12507,0.023065,0.048561,0.074033,0.27803,0.40554,-0.23198,0.099546,0.27805,-0.20649,-0.20647,-0.35946,-0.15546,-0.20649,-0.027987,0.38005,0.45656,-0.10447,-0.027956,-0.3595,-0.053476,-0.12998,0.15057,0.40556,-0.053482,0.048531,-0.00243,-0.10444,-0.10447,-0.002461,0.023035,0.15054,0.30355,0.17602,-0.12998,-0.15544,0.048573,0.32905,-0.053495,-0.3595,-0.12996,-0.002479,0.074033,-0.053439,0.12505,-0.053482,0.074033,-0.23198,0.09954,0.25254,0.15055,0.048549,-0.232,-0.05347,-0.027956,-0.002461,-0.10447,-0.078966,-0.10447,0.023023,0.048567,0.27806,-0.10449,0.38006,0.20155,-0.283,-0.20648,-0.23198,-0.002454,-0.002443,-0.027974,-0.027969,0.30352,-0.027993,0.074033,-0.027956,-0.002461,-0.053464,-0.23198,-0.027969,0.32909,0.048592,0.25255,-0.41054,-0.15553,0.099528,0.12505,-0.027938,-0.12993,-0.053446,-0.002472,-0.002467,-0.053482,0.074033,0.074013,0.12502,0.074013,-0.05347,0.074087,-0.25746,-0.078947,0.15056,-0.078984,-0.053482,-0.002479,0.023035,0.15054,0.22703,-0.18098,-0.20645,-0.027931,-0.027993,0.099534,0.12505,-0.027987,-0.02795,0.15059,-0.078972,-0.43601,0.22705,0.38009,0.07402,0.20155,-0.10445,-0.15546,-0.002472,-0.05347,-0.23198,-0.10446,-0.002472,-0.002467,0.023035,0.30356,0.22704,-0.002479,-0.078984,-0.12998,-0.10447,-0.12998,-0.02792,0.2781,0.12509,-0.10447,-0.1555,0.27803,0.17602,0.023029,-0.10444,0.17607,0.023054,-0.20649,-0.23198,-0.25749,0.048543,0.099534,0.023029,0.25256,0.074026,-0.12999,-0.35948,0.17609,0.27807,0.023029,-0.20649,0.023017,-0.078966,-0.002461,0.074051,0.38007,0.099564,-0.28295,-0.43599,-0.283,0.099497,0.58407,0.15057,-0.20645,-0.43602,-0.15549,-0.027962,0.12509,-0.15545,0.099528,0.43106,0.27805,-0.13,0.048536,-0.027944,0.074057,-0.23198,0.023047,-0.12997,-0.078977,-0.027993,-0.053506,0.048518,0.12508,0.048555,-0.078966,-0.23195,0.074081,-0.0535,0.30356,-0.053482,0.22701,-0.18098,0.17607,-0.18098,-0.15548,0.17606,-0.078928,-0.23198,0.023047,-0.027969,-0.027987,0.074026,0.048536,0.048512,0.074051,-0.078953,-0.20647,-0.002472,0.30358,-0.027969,-0.12999,-0.078984,-0.05347,0.048531,0.023059,-0.078966,-0.078972,-0.027993,-0.078947,-0.10447,0.15052,0.17603,-0.078972,-0.15548,-0.10443,-0.12993,0.22707,0.40557,0.25252,0.074013,-0.1555,-0.23202,-0.002472,0.074057,0.074087,-0.027913,-0.027931,-0.15545,0.27805,0.53303,-0.10451,-0.1045,-0.10447,-0.15545,-0.33398,-0.18098,-0.15543,-0.05347,0.38003,0.32903,-0.078959,0.09954,-0.181,-0.10445,-0.20647,-0.20648,0.099552,0.25256,0.09954,0.023017,0.25259,0.023035,-0.002479,-0.15546,-0.23197,-0.07899,0.099552,-0.053488,0.15052,0.099564,-0.20649,0.15054,0.25258,0.099559,-0.078959,-0.053451,-0.2065,-0.12998,0.099546,-0.15548,0.023017,0.50756,0.12504,-0.18098,-0.436,0.048567,0.1761,0.15052,-0.33401,-0.15548,0.048549,-0.002479,-0.053495,0.17607,0.074051,0.023029,-0.002461,0.048555,-0.07899,0.12504,0.023065,-0.027969,0.12504,-0.02795,-0.078959,-0.078972,0.074051,-0.002479,-0.1045,-0.002467,0.048536,-0.002448,-0.002423,-0.10444,-0.12998,-0.20649,0.023029,0.38008,0.023035,-0.283,0.53306,0.38005,-0.02795,-0.33399,-0.334,-0.18098,-0.12998,-0.283,0.023029,0.27806,0.17606,0.099552,-0.15548,0.023047,-0.10447,0.09954,0.048531,-0.078972,0.099559,-0.10449,-0.10448,0.15055,0.15056,-0.2065,-0.283,-0.002461,0.074062,-0.15548,0.023029,0.074013,-0.002479,0.43107,0.15057,-0.15546,-0.027944,0.15056,-0.18098,-0.18097,-0.2065,-0.079026,-0.027969,0.048549,0.12507,0.17608,0.12503,-0.12998,-0.078947,-0.02798,-0.027974,0.17602,0.12504,0.099564,0.074038,-0.18097,0.099546,0.12505,0.074069,-0.23199,-0.10447,0.023041,-0.30848,0.12504,0.30353,0.048518,-0.15547,-0.002461,0.27808,-0.33402,-0.02798,-0.002454,-0.027969,-0.002461,0.20156,0.30355,-0.12999,-0.027944,-0.053433,-0.181,-0.334,0.048549,0.099546,0.048512,0.35453,0.15052,-0.18096,-0.20644,-0.10443,-0.027969,0.25257,0.02301,0.20154,-0.0535,-0.13,-0.10447,-0.002405,0.04858,-0.10447,0.023035,-0.05347,-0.079002,0.20154,0.53307,0.32906,-0.053446,-0.33398,-0.23197,-0.027956,-0.15547,-0.10444,0.17604,0.1505,0.15052,0.17606,-0.027938,-0.10445,-0.43601,-0.10447,0.30356,0.50756,-0.15551,0.099534,0.048567,-0.027969,-0.41048,-0.12995,-0.12997,0.023047,0.074069,0.35455,-0.13005,-0.002497,0.12505,0.30355,-0.002454,-0.23194,-0.30845,0.048543,0.22707,-0.053495,-0.13,0.07402,0.023047,-0.12999,0.15054,0.099559,-0.48699,-0.12996,0.27806,-0.25748,-0.053495,0.20152,0.074013,0.12502,0.023054,0.099577,-0.3595,-0.25747,0.023035,-0.002467,-0.30849,0.25252,0.48206,0.43108,-0.15545,-0.10445,-0.027944,-0.23197,-0.3595,-0.002454,0.20155,0.15053,0.17604,0.07402,-0.181,-0.35947,-0.053495,0.32905,-0.15543,-0.15545,-0.2575,0.023017,0.40557,0.32904,-0.078984,-0.20646,-0.20647,0.074038,-0.10446,0.074044,0.12504,-0.002467,0.048567,-0.027974,0.023029,0.074075,0.17607,-0.1045,-0.13001,-0.02798,0.32904,-0.15546,-0.027931,-0.28297,0.12506,0.2526,0.20155,0.40552,-0.51251,-0.51249,-0.1555,0.27808,0.25257,-0.002485,-0.027974,0.048536,0.048543,0.20156,-0.12996,-0.053476,-0.002448,0.12503,0.17602,0.074044,-0.12998,-0.053488,-0.23194,-0.027931,-0.18099,-0.078984,0.25254,0.32905,-0.002461,-0.1045,-0.053464,-0.10444,-0.18097,-0.15545,0.20156,0.45654,0.27806,0.074008,-0.18101,-0.12996,-0.28298,-0.053446,-0.002418,0.25261,-0.15548,-0.30851,0.022986,0.22701,0.43107,0.32907,-0.18097,-0.25748,-0.25746,-0.436,0.074013,0.30353,-0.18097,0.17606,-0.002461,0.023023,-0.12996,-0.078953,-0.56352,0.20155,0.45654,0.38007,-0.10447,-0.002467,0.17606,-0.053439,-0.385,-0.3085,-0.20648,0.074026,0.048561,0.12504,0.17602,0.048536,0.30356,-0.078984,-0.10448,-0.002448,-0.002436,-0.30849,-0.23203,0.27806,0.074069,-0.12999,0.02301,0.30356,-0.15546,-0.43598,-0.30848,0.15055,0.40558,-0.10449,-0.00251,-0.079008,0.30356,0.43107,-0.15545,-0.35946,-0.28297,-0.078959,-0.053488,0.023047,-0.078977,0.023029,0.15053,0.32904,0.45656,0.048549,-0.33398,-0.33398,0.023047,-0.283,-0.1045,-0.002467,0.15055,0.25255,0.048531,-0.18095,-0.18094,-0.053427,0.074008,0.27803,-0.18101,-0.10449,0.45658,0.30355,-0.10446,-0.385,-0.18097,-0.053446,-0.23197,-0.15545,0.07402,0.48208,0.25256,-0.232,-0.027993,0.074026,-0.078972,-0.078947,-0.18097,0.15058,-0.002479,-0.002479,0.17606,0.09957,-0.10447,-0.2575,-0.15546,0.43109,0.17606,0.02301,0.048531,-0.002479,-0.12998,-0.078977,-0.002467,0.22705,-0.56349,0.048573,-0.002491,-0.002467,0.15057,-0.07899,-0.053482,-0.002491,0.15052,0.074057,0.09957,-0.053427,-0.25747,-0.30852,0.27805,0.40558,0.023029,-0.053476,-0.05347,-0.078977,0.048536,0.20156,-0.078996,-0.15551,-0.053451,0.12506,0.048567,-0.20647,0.074057,-0.10449,0.12503,0.12502,-0.20649,-0.002479,0.30355,0.023023,-0.053446,-0.20644,-0.10447,-0.18098,0.074033,0.023041,-0.078972,-0.07899,0.099552,0.048543,-0.078977,-0.027998,-0.18098,0.074057,0.25254,0.30357,-0.078977,-0.28301,-0.23199,-0.23197,-0.12998,-0.18096,-0.1555,0.17604,0.40556,0.099515,-0.15546,-0.385,-0.002448,0.25258,-0.027974,-0.027987,0.074038,-0.027956,-0.002472,0.048543,-0.002472,0.25256,0.17604,-0.23202,0.099564,0.074069,-0.078977,-0.15545,-0.5635,0.048531,0.09954,0.15052,0.329,0.023041,-0.20651,-0.027944,-0.28297,0.023059,0.074075,-0.12999,0.12505,-0.027969,0.074013,0.22707,-0.15547,0.074038,-0.027938,-0.283,-0.12999,0.074033,-0.027969,0.17607,0.048531,0.32908,0.40559,-0.10443,-0.053464,-0.48704,-0.25749,-0.25749,0.15056,0.58409,-0.1045,-0.18101,-0.10447,-0.027962,-0.02795,-0.002423,0.17605,-0.02795,-0.18097,0.07402,0.099534,0.15056,-0.027993,0.12501,-0.053464,-0.18094,-0.18097,0.12505,0.17606,-0.10447,-0.12999,0.15053,0.12504,0.12504,0.12505,-0.436,-0.18098,0.12506,0.32905,-0.027974,-0.002467,0.048555,-0.20646,-0.027956,0.17604,-0.1555,-0.15548,0.074069,-0.002472,-0.028005,0.074044,0.20156,0.074051,-0.002467,0.048555,0.048555,0.22707,-0.28299,-0.2065,-0.078953,0.048518,-0.028011,-0.053488,0.27808,0.048543,-0.25748,-0.25745,-0.002436,0.074038,0.099534,-0.027993,-0.002485,0.074038,0.27805,0.25258,-0.12994,-0.20646,-0.053464,-0.12999,-0.07899,0.099521,0.048531,0.048561,0.4311,-0.078977,-0.12998,-0.002461,-0.002461,-0.25749,-0.15549,0.15054,0.12503,0.12507,-0.053464,0.048549,-0.12996,-0.12998,0.023035,-0.28297,0.20155,0.68608,0.099491,-0.18101,-0.12998,0.22708,-0.15546,-0.35947,-0.10444,0.074051,0.074051,-0.027993,0.22705,-0.002491,0.20153,0.22707,-0.078935,-0.38495,-0.002472,0.15051,-0.30852,0.023029,0.20155,0.048525,0.099546,-0.12994,-0.12993,-0.053458,-0.23199,-0.18098,0.76261,0.50757,-0.25753,-0.232,-0.10445,-0.28297,-0.027956,-0.078959,0.048536,-0.18098,0.0485,0.09951,0.023035,0.17606,0.30357,0.074069,-0.30846,-0.078977,0.20156,0.099564,-0.2575,-0.13002,-0.053488,0.15056,0.09951,-0.10447,-0.053421,0.048585,0.20156,-0.15548,-0.18097,-0.002443,-0.12998,0.048525,0.27802,-0.15547,0.3291,0.20155,-0.053506,-0.20649,-0.053464,-0.30851,-0.15548,-0.002485,0.023047,-0.00243,0.20159,0.09957,0.048567,0.099521,-0.053519,-0.079014,-0.2065,0.074038,0.27806,0.074038,-0.33398,0.074062,0.12507,-0.027969,-0.053476,-0.078977,-0.2575,0.09954,0.27808,0.2271,0.73711,-0.18097,-0.48701,-0.43604,-0.23201,-0.027969,0.074051,0.20156,0.09954,-0.053464,0.12508,-0.12999,-0.1555,0.22706,0.45654,-0.053506,0.048561,0.074075,-0.15544,-0.15547,-0.12998,-0.41049,-0.2065,-0.18103,0.17603,0.27806,0.27805,-0.20652,-0.18098,0.12507,0.17605,-0.002443,0.074069,0.17605,0.048518,-0.30849,-0.20647,0.048531,-0.002454,-0.05347,-0.053476,-0.25749,0.099552,0.25256,0.023041,-0.0535,-0.078984,0.048543,0.30356,-0.18097,-0.078941,-0.18097,-0.078959,-0.002467,-0.002472,-0.10447,0.38005,0.17602,-0.027998,-0.10447,-0.20646,-0.20644,0.099564,0.074013,-0.25751,-0.053482,0.12504,0.048531,-0.027987,0.023023,0.048543,-0.00243,0.048561,-0.078959,-0.15549,-0.053495,0.023035,-0.12998,0.023047,0.48206,-0.10449,0.02301,0.15052,-0.002448,-0.30844,-0.15545,-0.10448,0.09954,-0.078959,-0.027974,-0.027974,-0.078972,0.12505,-0.078966,0.09951,0.38003,0.023035,-0.078984,0.048536,0.4056,-0.41046,-0.25748,-0.10443,-0.33399,-0.1045,0.40555,0.074038,-0.07899,0.048518,0.27806,0.048543,-0.46149,0.023041,0.43109,-0.05347,-0.2065,-0.027987,0.099552,-0.10446,0.023029,0.074062,-0.078959,-0.027987,-0.30852,0.099564,0.38007,-0.078977,-0.10446,0.27808,-0.20646,-0.078966,-0.2575,0.12504,-0.2065,-0.078996,0.15056,0.09954,0.17603,0.48205,0.074026,-0.15546,-0.20645,-0.12993,-0.18098,0.023023,-0.002461,-0.002454,0.35455,0.32902,-0.078972,-0.30846,-0.43598,-0.181,0.25252,0.27805,-0.027969,-0.25752,-0.078996,0.20158,0.023059,-0.23197,0.15055,-0.002436,-0.25749,-0.053488,-0.13,-0.15552,0.15052,0.17607,-0.23197,0.27805,0.27806,0.12507,-0.38498,-0.28298,-0.18099,-0.027987,0.17603,0.023029,-0.18098,-0.053451,0.25256,0.27808,-0.20648,-0.10447,0.12505,0.12505,0.074044,-0.053464,0.023041,0.30354,0.023047,-0.10449,-0.10451,-0.20647,-0.002448,0.25253,-0.002467,-0.02798,0.074069,-0.027925,-0.10444,-0.15548,-0.181,0.099552,-0.10449,-0.30851,0.40553,0.86461,0.048543,-0.10444,-0.18097,-0.41052,-0.30849,-0.05347,0.25254,-0.027969,0.023054,0.074069,0.048536,0.17606,-0.078928,0.048555,-0.25751,0.074026,0.20155,-0.25752,-0.053506,0.30353,0.30357,-0.20646,-0.053427,0.074093,-0.28297,-0.18098,0.099521,-0.33402,0.12504,0.58408,0.38005,-0.12997,-0.23196,-0.25746,-0.078977,-0.053495,0.20153,0.32904,0.048543,-0.385,-0.15545,0.048592,-0.25747,-0.43604,0.12503,0.22707,0.25256,0.022986,0.12504,0.048555,-0.23198,-0.25747,-0.078953,-0.027956,-0.12998,0.048531,0.15054,0.17601,0.099521,-0.027974,0.048561,-0.12996,-0.20647,0.38008,-0.15549,-0.12998,0.048536,-0.002454,0.12504,0.12504,-0.28299,-0.15546,-0.18097,-0.027956,-0.10451,-0.027993,0.35454,0.25257,0.38008,-0.053495,0.15051,-0.18097,-0.10443,0.074087,-0.10444,-0.002454,-0.028011,-0.18101,0.074044,0.023059,0.12504,-0.078947,0.048555,-0.002479,-0.0535,-0.15552,-0.028011,-0.10447,-0.002443,-0.10445,-0.20647,0.15057,-0.10447,0.074038,0.048518,0.09954,0.074026,-0.05347,0.17604,0.27807,-0.053476,-0.18101,-0.43603,0.15056,-0.053488,-0.23196,0.20161,0.023035,0.27803,-0.027962,-0.28299,-0.002472,0.099564,-0.12996,-0.027969,-0.20651,-0.027969,0.25254,0.53307,-0.053458,-0.12996,-0.00243,-0.18097,-0.053464,0.023035,-0.13,0.125,-0.13,0.17604,0.50757,-0.053451,-0.20642,-0.28296,-0.23201,0.27809,-0.12998,0.023023,0.12505,-0.1555,0.023023,0.22707,-0.12996,-0.18098,0.074038,0.023059,-0.10449,-0.12999,-0.02798,0.25254,0.09954,0.099559,-0.23198,-0.12998,0.17606,-0.10445,-0.33401,-0.079039,0.53305,0.12504,-0.15545,-0.002387,-0.078923,-0.25749,0.12506,0.12504,-0.18102,0.048512,0.023029,0.17604,0.099546,-0.002461,0.023023,-0.078972,0.074062,0.023072,-0.002436,0.12505,0.25254,-0.232,-0.10447,0.099546,-0.053446,-0.28299,-0.12997,-0.33399,0.25252,0.45654,0.048543,0.023047,-0.43599,0.25258,0.12505,0.074044,-0.12998,-0.28301,-0.33404,0.20158,0.3291,0.15056,0.048536,-0.078972,-0.078966,0.023059,0.023065,-0.20648,-0.20649,-0.13001,0.12502,0.35454,0.023029,-0.027962,-0.20646,-0.12994,-0.002443,-0.38499,0.099528,0.32904,-0.027974,0.023035,0.12506,-0.18097,-0.027944,0.30355,0.023029,-0.027969,0.12503,-0.02798,-0.15545,-0.10445,-0.23198,-0.20647,-0.10448,0.099534,0.32905,0.023029,-0.35951,0.17606,0.048561,0.15056,0.17605,0.023065,-0.15548,-0.23199,-0.05347,-0.078972,0.048549,0.099546,0.099521,-0.053506,-0.3595,0.17604,0.71162,0.20156,-0.53799,-0.30849,0.099528,-0.10449,-0.002472,0.048531,0.20153,-0.053476,-0.18094,-0.20646,-0.027956,0.22705,-0.02795,-0.027974,-0.13002,0.32907,0.15054,0.048549,-0.2065,-0.25748,-0.078947,0.099564,0.09954,-0.15549,0.17605,0.15055,0.099521,-0.07899,-0.10446,-0.10445,0.074062,-0.12998,-0.002485,-0.23198,0.15054,0.48205,0.45653,-0.18098,-0.33398,-0.20644,-0.20645,-0.18096,-0.181,0.27805,0.32905,0.43106,0.15053,-0.23197,-0.053464,-0.15548,-0.053458,-0.23201,0.048536,0.15053,0.048531,0.20156,0.048512,-0.10446,-0.078947,-0.10445,0.099577,-0.078972,-0.23199,0.12501,0.76256,-0.002479,-0.25748,-0.33401,-0.053451,-0.078928,-0.20645,-0.2065,-0.002467,-0.002485,-0.078984,0.12502,0.38005,0.30356,0.3801,-0.20647,-0.078972,-0.33401,-0.053433,-0.10448,-0.2065,0.09954,0.048555,0.12507,-0.002454,-0.10449,0.023023,0.15053,-0.181,0.048518,0.22707,-0.20648,0.023029,0.22709,0.09957,-0.12997,-0.053458,0.09957,-0.027944,0.023023,-0.00251,0.02301,0.12506,0.17609,-0.053439,-0.35949,-0.079008,0.12502,0.48206,0.40559,-0.33399,-0.053488,0.023072,0.048585,-0.41048,-0.43599,-0.10447,-0.02798,0.40557,0.023023,-0.20653,0.17603,0.30355,0.048555,-0.33398,-0.30851,0.15054,0.40557,-0.002443,-0.28298,-0.2065,0.20155,0.099534,0.099559,-0.48699,-0.51251,0.023035,0.45661,0.22708,0.27805,-0.002534,-0.079008,-0.002436,-0.41049,-0.05347,0.27805,0.048549,-0.10445,-0.002443,0.20155,-0.027969,-0.20649,0.048543,0.22707,0.074038,-0.385,-0.20649,0.12507,-0.078977,-0.027993,0.25254,-0.12999,-0.10449,-0.053476,0.074069,-0.027925,-0.15548,-0.053495,0.12504,-0.002467,0.048549,0.22707,-0.23201,0.099528,-0.12998,-0.41047,-0.002454,0.023029,0.099564,0.15057,-0.07899,0.35455,0.35455,0.12505,-0.027938,0.048536,-0.2575,-0.20647,-0.18097,0.25257,-0.053464,0.023029,0.17604,-0.053482,-0.12998,-0.05347,-0.10445,-0.12996,0.099559,0.17602,0.17603,0.25255,-0.027962,-0.10446,0.12505,-0.027969,-0.23198,-0.23199,-0.10446,-0.078947,0.074044,0.27805,0.27802,-0.38502,-0.64001,0.20155,0.30357,-0.078972,-0.15549,-0.002467,0.20158,0.25254,-0.053464,-0.053446,-0.23198,-0.232,0.17605,-0.027962,-0.12999,-0.002485,0.17604,0.17606,-0.078959,-0.053482,-0.078959,-0.053439,-0.053451,-0.25753,-0.15552,0.048512,-0.35951,0.38006,0.20155,0.35459,0.12507,-0.25746,-0.15545,-0.23197,0.099521,-0.002503,0.023035,-0.15547,-0.027969,-0.15548,0.074051,0.15056,-0.053476,-0.15549,-0.28298,0.023041,0.17603,-0.002485,-0.02798,0.023047,0.023084,-0.33398,0.099521,0.43103,0.048549,-0.18099,-0.23202,0.12504,-0.10444,-0.10445,-0.078959,-0.12999,-0.10448,-0.002467,0.27805,0.20156,-0.053482,0.15054,-0.28299,-0.078959,-0.1555,0.20155,0.20156,0.048536,-0.1045,-0.027962,0.099559,0.099546,-0.33399,-0.15548,0.15057,-0.078959,-0.053464,0.20157,-0.053476,-0.1045,-0.053525,-0.002479,0.35458,0.25254,0.023047,0.023072,-0.23195,-0.23199,-0.12997,-0.18103,-0.20647,0.3291,0.27805,0.30353,-0.28298,-0.15548,0.25255,-0.078996,-0.20648,-0.20646,-0.002467,0.12505,0.17607,0.099552,-0.078966,-0.15548,0.048531,-0.002479,0.20156,0.20155,-0.12998,0.22702,-0.23199,-0.12996,-0.02792,-0.05347,0.074038,-0.053464,-0.078984,-0.027987,0.15054,0.099588,0.17606,-0.053464,-0.23197,-0.053482,0.099552,-0.15549,-0.1555,-0.18099,0.07402,0.07402,0.25256,0.099559,0.0741,-0.027938,-0.3595,-0.23201,0.15054,0.20156,-0.053476,0.32903,-0.05347,0.048555,-0.33396,-0.002423,0.074044,0.17606,0.048518,-0.078996,0.12504,0.099546,-0.1045,-0.18098,-0.10447,0.25257,0.12504,-0.027962,-0.25748,-0.23198,0.023017,0.25256,0.30354,-0.2575,-0.41051,-0.23196,0.3801,0.09954,-0.053458,-0.10446,-0.13001,0.12503,0.25255,0.50757,-0.43601,-0.43598,-0.078972,-0.027998,0.15056,-0.078953,0.17603,0.43107,0.048536,0.22707,-0.00243,-0.15543,-0.12995,-0.61451,-0.1045,0.15051,0.12501,0.17601,0.099521,0.074044,-0.078947,0.15059,0.099583,-0.35949,-0.15546,0.074038,-0.053506,0.07402,0.20155,-0.027993,-0.4105,-0.15547,0.32907,0.40554,0.12504,-0.28301,-0.20646,-0.23198,-0.07899,0.074038,-0.1045,-0.10448,0.15057,0.25256,0.074062,0.22705,0.35456,0.023041,-0.078972,0.17606,-0.027969,-0.43601,-0.078984,-0.538,-0.20647,0.45656,0.68605,-0.33399,-0.23198,0.12505,-0.027956,-0.12994,-0.15547,0.25255,0.22702,0.074008,0.40554,-0.078935,-0.078947,-0.053446,-0.30849,-0.436,-0.10446,0.074044,0.099521,-0.078996,0.023029,0.12503,0.17603,0.20159,-0.33397,-0.30849,0.17602,0.32906,0.30357,-0.15551,-0.43603,-0.078928,-0.20647,0.2271,-0.20648,-0.23197,-0.053482,-0.053488,-0.078984,0.25256,0.25252,-0.13,0.048512,0.48208,0.023059,-0.15548,-0.05347,-0.15547,-0.28297,-0.18097,-0.002497,-0.053476,0.048573,0.27806,0.074013,-0.20648,-0.002461,-0.053476,-0.053451,-0.002479,0.40552,0.074026,-0.25746,-0.15548,-0.2065,0.53306,-0.002423,-0.20647,-0.2575,-0.23198,0.32908,0.20154,-0.18099,-0.43602,-0.0535,0.25254,0.099564,-0.10445,-0.23198,-0.053451,-0.10449,0.17601,0.38005,0.12506,-0.30851,0.15057,-0.078928,-0.35948,0.099528,0.30353,0.048543,0.023023,0.30356,-0.15546,-0.15547,-0.41054,0.0485,0.20156,-0.078959,0.17609,-0.053464,0.12504,-0.027944,-0.078972,0.023041,0.048555,-0.15549,-0.13001,0.048549,0.15053,0.25251,0.55857,-0.25748,-0.385,-0.027925,-0.38497,-0.10447,-0.46149,0.12505,0.38002,0.27803,0.15054,-0.002443,0.17607,-0.10446,-0.10445,-0.10447,0.023029,-0.23199,0.12505,0.25254,0.023029,0.023047,0.023035,-0.30851,-0.25748,-0.28298,-0.078959,0.32905,0.50756,0.099534,-0.078984,-0.15549,-0.35949,-0.15544,0.3291,-0.002436,-0.436,0.12503,0.15053,-0.079002,0.02301,0.023005,0.17605,0.074069,-0.15546,-0.027974,-0.10449,-0.12997,-0.002461,-0.12997,0.099546,0.22707,0.22705,-0.2065,-0.12998,-0.20647,0.048567,-0.10447,-0.10452,-0.12999,0.25256,0.35458,0.048555,-0.20648,-0.078966,-0.053476,-0.35953,0.15054,0.22704,-0.078977,-0.10447,0.023041,-0.12997,-0.25749,-0.30851,0.22705,0.38007,0.38009,-0.078972,-0.23202,-0.13,-0.10447,0.048573,-0.30847,-0.283,0.048536,0.12504,0.12505,-0.053476,0.099515,0.22705,0.074062,-0.078923,-0.25746,-0.53801,0.25254,0.20153,0.25256,0.023047,-0.02795,-0.15551,-0.20652,0.023041,-0.12994,0.099559,-0.002448,-0.078972,0.099552,0.22702,0.099546,0.15053,-0.078984,-0.002485,-0.35951,-0.15549,-0.28297,-0.12998,0.023035,0.53308,-0.002454,-0.10444,0.27807,0.023017,-0.2065,-0.2065,-0.12998,-0.25748,0.048555,0.15055,0.12504,0.22704,-0.18099,-0.027969,-0.053464,-0.02795,-0.027969,-0.078984,-0.078984,0.048531,0.17607,0.48208,0.32907,-0.28299,-0.436,-0.35949,-0.20647,-0.027969,-0.053451,0.074033,0.17602,0.176,0.07402,-0.078947,0.1761,0.32907,0.12504,-0.33401,-0.23198,-0.002472,0.074033,-0.23199,-0.12999,0.12504,0.27808,-0.10447,-0.10445,-0.07899,0.27804,0.048549,-0.078966,0.023035,0.02301,0.023041,-0.12995,-0.02792,-0.15548,-0.027987,-0.027974,-0.23199,0.22704,0.40556,0.17607,-0.053427,-0.35948,-0.35951,-0.002472,0.71157,0.048518,-0.38499,-0.20647,0.32908,0.15054,-0.13,-0.18096,-0.18096,-0.23196,-0.027956,0.20155,0.0485,0.12503,0.22706,0.023059,-0.00243,0.048549,-0.18098,-0.053488,-0.002479,-0.053476,-0.385,-0.25748,0.48209,0.55856,0.17604,0.22704,-0.25748,-0.436,-0.30847,-0.15546,-0.10445,-0.053488,0.074033,0.25256,-0.078984,-0.053495,-0.053464,-0.053476,0.15055,0.023029,0.25254,-0.23204,0.17604,0.12507,-0.23196,-0.35948,-0.18097,0.20156,-0.02798,-0.15548,-0.18097,-0.078966,0.022998,0.30352,-0.002491,0.15054,-0.10445,0.02309,-0.053464,-0.12998,-0.15551,0.09954,0.17606,-0.053482,-0.28302,-0.13001,-0.15545,0.12509,0.17607,0.15054,-0.283,0.074069,0.30358,-0.078977,-0.43607,-0.12998,0.17606,0.048573,-0.002467,-0.12998,0.048543,-0.002479,0.12508,0.074044,-0.053488,-0.002467,-0.027969,0.048585,-0.10449,0.074038,-0.053506,-0.2065,0.30355,0.73711,0.074062,-0.23199,-0.12997,-0.25749,-0.46149,-0.23197,-0.002448,0.27804,0.25254,0.40557,-0.002443,-0.20644,-0.43601,-0.2575,0.074026,-0.18101,0.048463,0.22701,0.20156,0.17611,0.12508,-0.23197,-0.35947,-0.053464,-0.25752,-0.079002,0.048536,0.30355,0.35455,-0.002448,-0.078935,-0.18097,-0.35951,-0.18099,0.76258,0.074013,-0.15548,-0.41049,-0.10444,0.074013,0.17604,-0.33398,-0.12998,-0.002454,0.023059,-0.053495,0.22705,0.27806,0.17604,0.074038,0.074038,0.12508,-0.053421,-0.12995,-0.35951,-0.38502,0.25252,0.43105,-0.02798,0.074062,0.17607,0.09957,-0.28296,-0.23197,0.074051,0.023005,0.023029,0.53308,0.3801,-0.13,-0.51254,-0.33401,0.22706,0.2781,-0.027956,-0.15549,-0.02798,0.074038,0.12504,0.099564,0.023054,0.17606,-0.12999,-0.05347,-0.10448,0.22705,0.2781,-0.10447,-0.053488,-0.10448,-0.23197,-0.053433,-0.10447,-0.23202,0.048549,-0.053446,0.09951,0.63506,0.66058
1,-0.10449,-0.053495,0.099534,0.048555,-0.078972,-0.053476,-0.002436,-0.10444,0.17608,0.074051,0.22706,0.048525,0.09954,-0.053482,-0.053476,-0.15548,-0.12998,-0.15546,-0.002461,0.023041,0.023029,-0.002491,0.17605,0.15055,0.22707,-0.12998,-0.20648,-0.18098,-0.078972,0.12509,0.12505,0.12504,-0.027993,0.023023,0.023035,-0.078972,-0.002448,-0.053464,-0.10449,-0.10447,-0.002448,0.099552,0.12504,0.023023,0.023047,0.09957,-0.002454,0.048549,-0.002454,-0.027969,0.074026,0.074013,-0.002472,-0.12999,-0.10447,-0.15546,-0.15546,-0.078947,0.023035,-0.002454,-0.078984,0.048531,0.25254,0.25255,0.32908,-0.078966,-0.18097,-0.334,-0.35951,0.023035,0.048536,0.27805,0.048536,0.048555,-0.078966,-0.23199,-0.02795,-0.027969,0.09954,0.023035,-0.002485,-0.002479,-0.027987,0.099546,0.023047,-0.027962,-0.002454,-0.05347,-0.10449,-0.002448,-0.002461,0.099552,0.15055,0.099528,-0.10449,-0.10449,-0.20649,0.023047,0.12505,0.099559,0.048555,-0.002454,-0.002467,0.17604,0.099528,0.023041,-0.078947,-0.10445,-0.12998,-0.10447,-0.027987,0.12503,0.074044,0.12504,0.12506,0.099564,-0.078972,-0.053451,-0.027969,-0.002467,0.074044,0.074038,0.15056,-0.002467,-0.053464,-0.053476,-0.053482,-0.12999,-0.027974,0.048531,-0.027969,-0.027974,-0.12998,-0.078972,-0.078966,0.074062,0.22708,0.023054,0.12505,-0.12999,0.09954,0.12502,0.099534,-0.15547,-0.07899,-0.027962,-0.027969,-0.002467,-0.053482,0.074057,0.20158,0.20156,0.15056,-0.13,-0.1045,-0.002461,-0.078972,-0.33399,-0.23201,-0.078977,0.22705,-0.41049,0.023023,0.40552,0.38006,-0.23195,-0.25745,-0.25746,0.35456,0.22705,-0.027993,0.074026,0.12506,-0.078959,-0.053476,-0.15547,-0.4615,0.023065,0.48205,0.27803,-0.20648,0.048536,-0.23199,-0.15549,-0.15546,-0.02795,-0.02798,-0.002467,-0.078984,-0.10445,0.4056,0.32909,0.25257,-0.15548,0.07402,0.43106,-0.41051,-0.742,-0.28299,0.25256,-0.078966,0.35458,0.43105,-0.23202,-0.23197,-0.10447,0.38009,0.09954,-0.002491,-0.053446,-0.053464,-0.385,-0.18098,0.22707,0.12507,-0.30851,0.048561,0.22702,-0.078972,-0.53796,0.12506,0.53307,0.22702,-0.079008,-0.079002,-0.078947,-0.002454,-0.15548,-0.25746,0.048549,0.17606,0.32907,0.12501,-0.35951,-0.25751,0.048555,-0.002454,-0.05347,0.22705,-0.20647,-0.027962,0.20155,0.32905,-0.10445,0.32909,0.60961,-0.43604,-0.61455,-0.33399,-0.23198,0.43108,0.45657,0.023041,-0.078966,-0.38502,0.022986,0.35457,0.25258,0.048543,-0.078941,-0.10445,-0.18097,-0.18101,0.0485,0.074008,-0.12995,-0.18098,0.15057,-0.027944,-0.2065,-0.0535,0.96664,0.27805,0.023029,-0.33401,-0.30846,-0.002436,-0.002461,0.17604,-0.28295,0.099534,0.20152,-0.002485,-0.027987,0.023035,0.12507,0.048555,-0.027956,-0.18094,0.074062,0.27803,0.022998,-0.002461,0.099546,-0.002472,0.023047,-0.002443,-0.35948,-0.41051,0.48206,0.12504,-0.43601,-0.25753,0.099521,0.17603,0.45661,0.099588,-0.027974,-0.027944,0.12509,0.048531,-0.002528,0.43107,-0.12997,0.023029,-0.18101,-0.23198,-0.23198,-0.38499,-0.027962,0.12501,0.25259,0.2781,0.12506,-0.10447,0.20153,-0.10446,0.09954,0.22704,0.20161,-0.25746,-0.46153,-0.30854,0.27804,0.023035,-0.002454,-0.10445,-0.053439,-0.002443,0.20156,0.43104,0.55857,0.048555,-0.38502,-0.33399,-0.41051,-0.002461,0.35459,-0.053446,0.099552,-0.15549,0.15055,-0.15549,-0.23201,0.12504,0.38007,0.43113,-0.10442,-0.15549,-0.12999,0.20155,0.38006,0.43103,-0.46155,-0.56351,-0.10445,-0.28295,-0.18094,0.074057,0.32907,-0.053464,0.048512,-0.15551,0.50755,0.63507,-0.28297,-0.30849,-0.20649,-0.436,-0.23194,-0.25749,0.20156,0.86458,0.22704,-0.12998,-0.002448,-0.10445,-0.027931,-0.078953,0.023065,-0.2065,0.22704,0.22701,0.048506,-0.078977,-0.20648,-0.28297,-0.28297,-0.027944,0.023035,-0.053458,0.35456,0.45658,0.12501,-0.027993,-0.027969,-0.46148,-0.12995,0.15055,0.35459,-0.078977,-0.18099,-0.15552,0.25254,0.09957,-0.18098,-0.33401,-0.15549,0.074038,0.22706,0.27807,-0.18097,0.12505,0.27806,0.074057,0.074044,-0.25748,-0.487,-0.002448,0.27806,0.22702,0.048506,-0.4105,-0.33402,-0.053488,-0.027938,0.048567,-0.18095,0.023047,0.074051,0.40561,0.12504,0.43106,0.20152,-0.1045,-0.35951,-0.25747,-0.33396,-0.15546,0.12509,0.53308,-0.25749,0.023041,0.32907,0.048536,0.099528,-0.181,-0.43601,-0.15546,-0.078959,0.25256,0.81359,-0.10449,-0.38501,-0.181,0.27805,-0.078959,-0.12993,-0.18095,-0.027944,0.074038,0.17606,0.023023,0.12502,0.048494,-0.028005,-0.28298,-0.18096,0.2271,-0.12994,0.12504,0.27804,0.32908,-0.12998,-0.15549,-0.2575,-0.027969,-0.10448,-0.41051,-0.078959,0.12506,0.60773,0.25071,0.27621,0.45472,0.1232,-0.10631,-0.05531,-0.004307,0.27621,0.12503,0.02301,-0.18095,0.22705,0.38008,0.60959,-0.23196,-0.38498,-0.64002,-0.078966,0.17602,0.20154,0.27804,0.048555,-0.41048,0.22707,0.22706,-0.18099,0.023054,-0.20649,-0.3595,0.02301,0.50755,0.17604,-0.12996,-0.23197,-0.053439,0.22712,-0.15549,-0.23202,0.02301,0.048531,0.17605,0.35458,0.12507,0.023041,-0.078953,-0.2065,-0.00243,-0.12999,-0.027969,0.048549,-0.20649,-0.12996,0.32904,0.48205,0.15054,-0.48702,0.048536,-0.20647,-0.38497,0.023054,0.20158,0.023035,-0.027974,-0.002479,0.17604,-0.002467,0.17609,0.048561,-0.15551,-0.46154,0.02301,0.22707,0.074075,0.048567,0.074062,-0.078984,0.048525,-0.002491,-0.002479,0.22707,0.048531,-0.078977,-0.053476,0.20157,-0.53798,-0.4615,-0.12998,0.22702,0.15054,0.43108,-0.02795,0.023029,-0.25751,-0.20649,-0.053476,0.048536,0.17606,0.15057,0.074062,-0.15549,0.022998,-0.12997,-0.053458,0.023029,0.048531,-0.20647,0.20157,-0.23198,-0.053482,0.023023,0.15054,0.27808,-0.078972,-0.002467,0.048549,-0.18097,-0.30848,0.099546,0.023023,0.20154,0.074051,0.15054,0.27803,-0.12996,-0.25746,-0.027969,0.30358,-0.078959,-0.30849,-0.053482,-0.027969,0.074013,0.048536,0.048592,-0.002472,0.30355,-0.078966,-0.10449,0.15056,-0.002418,-0.07899,-0.079008,0.074062,0.074038,-0.28298,-0.25748,0.074013,0.22706,0.22707,0.25255,0.074057,-0.053415,-0.053488,0.048518,-0.18097,-0.38502,-0.48702,0.38011,0.40556,-0.078966,0.023054,0.12504,0.048531,0.15057,-0.053439,-0.12997,-0.20649,-0.10448,-0.30847,0.074051,0.45656,0.17602,-0.002461,-0.02795,-0.12994,0.048543,0.17604,-0.15548,-0.002467,0.20155,0.17604,-0.027969,-0.10451,-0.10447,0.023047,-0.12995,-0.027889,-0.10444,0.30351,0.27803,-0.0535,0.22706,-0.2575,0.023078,-0.027925,-0.18097,0.048561,-0.18095,0.20154,-0.23204,-0.028042,0.20155,0.30358,-0.053476,0.048549,-0.002491,0.12508,-0.12996,0.023072,-0.027962,0.023029,-0.027987,0.074044,-0.078947,-0.10447,0.15053,0.09951,-0.10449,0.023035,-0.15549,-0.078972,0.15056,-0.10447,-0.002472,-0.10445,-0.10444,0.17607,-0.078996,0.074002,-0.10447,-0.10446,0.15054,0.15053,-0.053506,-0.053464,-0.15545,-0.078941,0.4821,0.32905,-0.18101,-0.002479,-0.538,0.099552,0.38005,0.12507,-0.6655,-0.12995,-0.232,0.40561,0.048506,0.20152,0.32906,0.32904,-0.10449,-0.078941,-0.53795,0.023059,0.12504,0.27806,-0.078977,-0.12999,0.099552,0.023029,-0.43604,-0.18099,0.6096,0.55862,0.048561,-0.538,-0.30852,-0.078984,0.12504,0.22705,0.12506,-0.12996,-0.078935,0.023047,0.074013,-0.027987,-0.027974,-0.053476,0.20155,0.27804,0.048543,-0.15543,-0.25745,-0.20646,-0.10447,0.22706,0.15052,-0.053513,0.20153,0.15056,-0.002467,-0.18095,-0.48699,-0.078959,0.38008,0.53307,-0.33404,-0.053506,-0.002479,0.023035,0.074062,0.099583,0.048561,-0.12994,-0.12998,-0.053476,-0.053488,0.07402,0.12502,0.32905,0.32907,-0.053409,-0.33399,-0.18099,-0.28297,-0.053488,0.074044,0.17604,0.023059,-0.12996,0.023047,0.45659,0.27806,0.15057,-0.3595,-0.23198,-0.25751,0.074008,0.32906,-0.053464,-0.053439,-0.18097,-0.23198,0.12504,0.27807,-0.18098,0.15054,-0.053488,-0.027987,-0.053464,0.023054,0.074057,-0.10445,0.023059,-0.33398,-0.053476,0.50755,0.43104,0.048561,-0.23198,-0.027931,-0.078947,-0.436,-0.33399,-0.053519,0.09951,0.17604,0.25257,0.20155,0.074038,-0.053451,0.074062,-0.18097,0.17605,-0.053476,0.15054,0.25256,0.023029,-0.027987,-0.12998,-0.053446,-0.053464,0.25256,-0.18097,-0.12998,-0.1045,0.074013,0.048561,-0.02795,0.25257,-0.10447,-0.12996,0.20159,0.38009,-0.10449,-0.15552,-0.1045,-0.053458,0.023023,0.27803,-0.18097,-0.053427,-0.23196,-0.053464,0.15054,0.099552,-0.10449,0.09954,0.4311,-0.15551,-0.18095,0.35461,0.38003,-0.12998,-0.23198,-0.078972,0.023047,-0.12998,0.15056,0.17608,0.12507,-0.10446,0.023023,-0.2065,-0.4105,0.074033,0.43105,0.38006,0.048555,-0.15549,-0.10447,-0.002448,-0.20646,-0.002436,-0.002467,0.12505,-0.33404,0.22703,0.074044,0.074038,0.17604,0.15055,-0.12995,-0.20647,-0.002454,-0.053488,-0.35954,-0.002503,0.12501,0.09954,0.099552,-0.027956,-0.053446,-0.078966,-0.053451,-0.02798,0.40555,0.17602,-0.30846,0.048536,-0.002461,-0.43601,0.15057,0.22708,-0.027956,-0.18099,0.099528,-0.13,-0.002503,0.023023,0.048561,0.074069,0.074062,0.074051,-0.15548,0.12507,0.22706,-0.053488,-0.1045,-0.05347,-0.10448,-0.02795,-0.12997,-0.13,0.02301,0.12504,-0.002443,0.048536,0.099534,0.35454,0.17607,-0.53796,-0.43598,0.50758,0.48203,-0.35951,-0.23199,-0.053458,0.27808,-0.078953,0.048536,-0.25749,-0.053458,-0.027956,0.074038,-0.1045,0.2015,0.32905,0.20156,0.074075,-0.10445,-0.12996,-0.2575,-0.027956,0.12505,-0.002448,0.048531,-0.15551,-0.002467,-0.002485,-0.027962,-0.20649,0.27808,0.04858,-0.25748,0.17603,0.53307,-0.027998,-0.15546,-0.28299,-0.15546,-0.15546,-0.002443,0.074075,-0.43601,0.25251,0.40554,0.15054,0.048531,0.15054,-0.10445,-0.23194,-0.053439,0.099521,-0.078984,-0.20649,0.074008,0.27804,0.023035,-0.078959,0.20155,-0.002467,-0.053439,-0.25744,-0.232,-0.00251,0.2015,0.023084,0.048549,0.15051,-0.078947,-0.10443,-0.20649,-0.078984,-0.2065,0.023023,0.25256,0.25256,0.074044,-0.078972,-0.12999,-0.12999,-0.18098,0.023078,0.09954,0.12505,-0.027969,0.12501,0.048512,-0.25749,-0.15546,0.27808,0.15056,-0.23198,-0.053464,-0.027962,-0.027969,-0.13002,0.048518,0.099546,0.023059,-0.10444,-0.002472,-0.10445,0.099528,0.099546,0.048518,0.048518,0.15052,0.074038,-0.078972,-0.10447,-0.12997,-0.12998,-0.12996,0.12505,0.32907,0.048525,-0.18099,0.048555,0.25259,-0.20647,-0.18099,-0.027969,-0.30849,0.17604,0.20153,0.22702,-0.15549,-0.027944,-0.027944,-0.053482,-0.053476,0.15056,0.09957,-0.002467,-0.002454,-0.1555,0.25254,0.048512,-0.027998,-0.18098,-0.12996,0.1506,-0.053464,-0.078977,-0.002491,0.048525,0.023047,0.074038,0.048531,0.074051,-0.25748,0.27807,-0.053446,-0.10449,-0.43601,0.25254,0.32899,-0.10449,-0.18091,0.17611,0.20153,-0.002467,-0.078953,-0.053439,-0.053451,-0.1045,-0.15551,0.048494,-0.002472,-0.027938,0.048585,0.12508,0.32908,-0.027969,0.099534,0.09951,-0.18098,-0.10447,-0.35949,-0.18097,-0.027956,0.17606,0.09954,-0.1555,-0.053476,0.17604,0.27807,0.25257,-0.027993,-0.35949,0.20159,-0.25745,-0.12997,-0.12995,0.099564,-0.13004,0.02301,0.32904,-0.002467,-0.10445,0.074075,0.15057,0.048512,-0.002497,0.023017,0.35456,-0.053488,-0.10446,-0.18093,-0.20644,-0.20648,0.02301,-0.18098,0.099528,0.15055,0.12505,0.12505,0.32908,0.048543,0.023059,-0.15548,-0.18098,-0.002485,0.099515,-0.053482,-0.002467,0.12505,0.35459,-0.20648,-0.33395,-0.28297,-0.10447,-0.002472,0.20153,0.17602,0.20155,0.023047,-0.07899,-0.002485,-0.385,-0.20647,0.09954,-0.027974,0.023023,0.40557,0.099552,-0.053464,-0.25749,-0.5635,-0.15549,0.25256,0.17604,0.048543,0.25259,-0.078966,0.15054,0.099515,-0.13,-0.18099,-0.053488,0.27808,0.25265,-0.078959,0.048543,-0.0535,-0.28301,-0.053495,-0.053482,0.17607,0.074087,-0.15548,-0.25753,0.048531,0.099521,-0.15549,0.20155,0.32909,0.12507,-0.053433,-0.18098,-0.33402,-0.10449,-0.46152,-0.28299,0.3291,0.68608,0.15052,0.099546,-0.053451,-0.15545,-0.18096,-0.181,0.074026,0.32904,0.17605,-0.18098,-0.23197,-0.02795,0.25257,0.20155,-0.3085,-0.15548,-0.25746,0.048536,0.50756,0.02301,0.20153,-0.05347,-0.10444,-0.15544,-0.078972,-0.078966,-0.002467,-0.002491,0.023017,0.15058,0.17606,0.07402,-0.13001,-0.10447,0.023078,0.30358,0.17603,-0.15548,-0.05347,-0.12999,-0.027993,0.17606,0.048555,-0.63998,-0.10446,0.30356,0.22705,0.023047,0.048506,0.023029,-0.1555,-0.18098,-0.18097,0.20155,-0.10447,0.22708,0.07402,0.15052,-0.078972,-0.05347,-0.05347,0.09954,0.023047,-0.15546,-0.23198,-0.10446,0.20155,-0.002491,0.02301,0.15056,0.099552,-0.053464,0.074062,-0.05347,-0.25748,0.023041,-0.12999,-0.15548,0.27805,0.43105,-0.078984,-0.10445,-0.28295,0.023041,0.48209,0.048536,-0.078984,-0.1045,-0.10449,-0.30851,-0.05347,0.17606,0.023041,-0.002467,-0.35949,0.22708,0.15054,-0.15548,0.074013,0.048494,0.15053,0.023054,0.22707,0.023047,0.074075,-0.12994,-0.15548,-0.053482,-0.078972,0.074051,0.048549,0.22705,-0.02798,-0.18097,-0.35948,0.048506,0.30358,-0.10447,-0.027969,0.048482,-0.079008,0.35457,-0.027913,-0.078972,-0.18098,-0.18098,-0.30847,-0.027956,0.15054,-0.002485,0.074038,0.17607,0.22707,0.02301,0.12502,-0.078959,-0.15548,-0.12999,0.12504,0.048549,0.12508,0.15059,0.023041,-0.51254,-0.23199,-0.002461,-0.12999,0.048531,0.20156,0.48205,0.15053,-0.002448,-0.33398,-0.25748,-0.28299,-0.078966,0.023029,0.12502,0.12502,0.15053,-0.002454,0.04858,0.023059,0.023017,-0.078959,-0.078959,-0.10448,-0.053495,-0.027993,0.12504,0.40556,-0.078953,-0.053433,-0.12995,-0.25747,-0.15545,-0.181,0.20152,0.15051,0.022986,-0.0535,-0.10444,-0.18096,0.48209,0.53311,0.27809,-0.33399,-0.64004,-0.18099,-0.07899,-0.02798,-0.027969,0.15054,0.17606,-0.078959,-0.002418,-0.25745,0.099521,0.35453,0.023029,0.12506,0.099546,0.17603,-0.002479,-0.15548,-0.15545,-0.10445,0.25255,-0.25748,0.30358,-0.078984,-0.078947,-0.18097,-0.10449,-0.23202,0.12504,0.023047,0.17606,0.023023,0.099515,0.09954,-0.053439,-0.078972,-0.027969,0.25256,0.27808,-0.18099,-0.23202,-0.002454,-0.027938,0.099559,0.023041,-0.078984,-0.078972,-0.48701,0.099577,0.35456,0.53307,-0.23198,-0.20648,0.099546,-0.12999,-0.20651,-0.002418,0.20161,-0.20653,-0.181,-0.10447,0.38005,0.12501,0.09957,-0.078959,0.048561,-0.18097,-0.33401,-0.18097,-0.20649,-0.1555,0.048494,0.20153,0.22707,0.32908,0.099552,-0.078966,-0.25748,0.023072,-0.078959,-0.28298,-0.053458,0.20157,0.20154,0.22702,0.12502,-0.18098,-0.28297,0.25256,-0.053476,-0.053433,0.023047,-0.25749,0.15055,0.30353,-0.027993,-0.20648,-0.10445,-0.027962,0.074062,0.20156,0.048512,0.099546,-0.10449,-0.078996,-0.002479,-0.15546,0.099577,0.3291,-0.30851,-0.079014,0.20153,0.30352,-0.23199,-0.15548,0.074075,-0.12991,-0.002418,-0.10445,-0.10447,-0.13,-0.028023,-0.027974,0.43107,0.20153,0.35456,-0.027925,-0.12996,0.074057,-0.053476,-0.28299,0.023035,0.048536,0.15056,0.22706,-0.027974,-0.078947,-0.23198,-0.15548,-0.027987,0.048543,-0.002454,0.023035,-0.027998,0.25253,0.12504,0.20158,0.30356,-0.28298,-0.30846,-0.18096,-0.181,-0.30853,0.023005,0.17604,-0.053464,0.074044,0.15055,-0.053458,-0.002479,-0.10449,0.12502,0.5586,0.22703,-0.28302,-0.48701,-0.15542,-0.20645,-0.078972,-0.283,0.20158,0.22701,-0.02798,-0.053464,0.17608,-0.10447,0.023023,0.074038,-0.078941,-0.25751,-0.13001,0.048512,0.43108,0.35458,-0.12999,-0.232,0.048567,-0.12993,-0.25748,-0.18097,-0.15546,0.20154,0.68605,0.023023,-0.027962,-0.35951,-0.25749,0.023035,0.17604,0.15056,0.25258,0.20154,-0.027987,0.023017,-0.23198,-0.23197,-0.002443,0.074069,-0.10447,0.20156,0.0485,-0.002497,-0.41054,0.15054,0.22705,0.074075,-0.23195,-0.30847,-0.002479,-0.079002,0.27803,0.25254,-0.05347,0.17609,-0.10447,-0.30849,0.074044,0.43107,0.15055,-0.20647,-0.334,-0.20648,-0.10452,0.58405,0.30356,-0.33393,-0.12993,0.25258,-0.181,-0.078996,-0.002454,0.22704,-0.053476,0.32907,0.20157,-0.078972,-0.12999,-0.25747,-0.05347,-0.078996,-0.002454,0.12507,0.15053,-0.027987,-0.05347,0.048567,0.12505,0.20156,0.074069,-0.2575,-0.12998,-0.027974,-0.30853,0.074002,0.30355,0.12509,-0.027931,-0.002436,0.30356,-0.30847,-0.23199,0.074008,0.40553,0.48208,0.023054,-0.002443,-0.25747,-0.4615,-0.46151,0.17605,0.074057,0.099521,-0.028011,0.22703,0.30356,-0.283,-0.28297,0.20158,0.15059,-0.15548,-0.20649,0.074081,-0.12998,0.074013,0.27805,0.40555,-0.33398,-0.18099,-0.027956,-0.078972,-0.053495,-0.002485,0.17608,-0.002461,-0.078977,0.048561,-0.053458,0.099528,0.20153,-0.25748,-0.18099,0.023035,-0.02798,0.15054,-0.25748,0.17606,0.25258,-0.027938,-0.18097,-0.078959,-0.053458,-0.10449,-0.027993,-0.002479,-0.2575,0.074051,0.12505,-0.12998,0.12507,0.15054,0.074033,0.048543,0.099528,0.023023,0.32906,-0.23193,-0.33396,-0.20649,-0.053482,-0.078966,0.023029,-0.23201,-0.002497,0.45657,0.76256,-0.35948,-0.12993,-0.23196,-0.10448,-0.13,-0.10447,0.12505,0.30355,-0.10448,0.048549,0.22707,0.27804,-0.33401,-0.33401,-0.10446,-0.027944,0.20158,0.15052,-0.027956,-0.20648,0.25256,0.15054,0.023023,-0.18098,-0.10448,-0.23199,0.12507,0.40556,0.15052,-0.10449,-0.12998,0.15059,-0.23195,-0.02795,-0.1555,0.099552,0.17606,-0.13,-0.1045,0.099564,-0.053433,0.22706,-0.30852,0.17601,-0.18099,-0.078972,0.023029,-0.05347,0.074044,-0.10449,-0.02795,-0.10447,-0.002454,0.074069,0.074044,-0.053513,-0.053495,0.15054,-0.25748,-0.078972,0.38006,0.30354,-0.18094,-0.10443,-0.078984,-0.053495,0.048531,0.17605,0.074062,-0.053464,-0.12998,-0.23202,0.35456,0.023084,0.30361,-0.23199,-0.15551,0.048506,-0.002472,0.17604,-0.10447,-0.20648,-0.18097,-0.4615,0.35457,0.48206,0.074033,-0.12998,0.074026,0.22708,-0.078947,-0.078935,-0.15548,-0.20651,0.12504,0.40556,0.22704,-0.027987,0.22707,-0.15546,-0.25748,-0.027956,0.048567,-0.41049,-0.43602,0.40556,0.27806,-0.12998,0.048512,0.20156,0.074081,-0.15548,-0.07899,-0.079002,-0.10448,0.17606,-0.10448,0.12504,0.12502,-0.18098,0.023059,0.12509,-0.027938,-0.20647,-0.15552,-0.10449,0.048512,-0.002479,0.27807,0.43107,0.074038,-0.4105,-0.4615,-0.02795,0.15056,0.074057,0.20155,-0.20649,0.20154,0.27806,-0.002436,-0.078959,-0.35952,0.023029,-0.078959,0.12506,-0.053495,0.048518,0.25256,-0.027974,-0.027962,0.048536,-0.20647,0.12509,-0.28299,-0.10448,-0.13002,0.023005,0.074044,0.048555,0.12505,0.048536,-0.15549,0.25257,-0.12999,-0.002461,-0.053464,-0.002448,0.30358,-0.15549,-0.25752,-0.027969,0.30356,-0.053439,-0.25746,-0.10449,0.074013,0.40558,-0.20648,-0.2065,0.023035,0.074062,-0.078947,-0.002454,0.023005,-0.027993,-0.002461,0.12504,0.45656,0.20156,-0.002423,-0.43598,-0.53803,-0.15548,0.023041,-0.002472,0.15051,0.048494,0.38008,-0.28299,-0.15549,0.023072,0.15058,0.15059,-0.053464,-0.232,-0.053446,-0.02795,0.074044,-0.002503,-0.002479,-0.002461,-0.027969,-0.12999,-0.18097,-0.10447,0.17605,0.27805,0.099559,-0.002503,0.023029,-0.10444,0.074051,0.023047,-0.10447,-0.078959,-0.12994,-0.002497,0.25252,0.074062,-0.18097,-0.3085,-0.10449,0.023047,-0.23197,-0.232,0.38006,0.71156,-0.078984,-0.02798,0.12509,-0.053464,-0.20647,-0.15546,-0.002467,-0.15548,-0.053495,-0.027993,0.15054,0.048561,-0.10449,-0.002443,-0.078966,0.023041,0.12506,-0.12998,0.22704,0.38003,-0.15548,-0.20648,0.074051,-0.053451,-0.28297,-0.23198,-0.30849,-0.027962,0.35455,0.89008,-0.10447,-0.23198,-0.385,-0.15548,0.023072,0.048536,0.099559,0.12503,0.20156,0.25257,-0.053476,-0.334,-0.002472,-0.00243,-0.027962,-0.002467,-0.027969,0.074051,-0.028005,0.048536,0.32908,-0.12996,-0.10449,-0.05347,0.15057,0.074057,-0.1555,-0.30851,0.023023,-0.053495,-0.053464,0.20158,0.09957,0.048543,0.27806,0.048567,-0.20649,-0.2575,0.12504,0.40557,0.12506,-0.2065,-0.10452,0.074069,-0.23196,-0.002454,-0.027969,-0.078972,-0.05347,-0.079002,0.22705,0.074057,-0.078947,-0.10447,-0.078972,-0.002454,0.099515,0.55855,0.20155,-0.23201,-0.18099,-0.027944,-0.12994,-0.20648,-0.078972,-0.12996,0.15057,0.099521,0.07402,0.22703,0.12503,0.023035,-0.027944,-0.078923,-0.053446,0.20155,-0.10449,-0.15548,-0.053464,0.023035,0.30355,0.58405,-0.07899,-0.487,-0.20646,-0.002479,-0.18095,-0.027931,0.048567,0.023029,-0.079008,0.048518,0.099534,0.048536,-0.078953,0.099546,-0.02798,0.15052,0.099552,-0.1045,0.17607,-0.002448,-0.15548,-0.2575,-0.20647,0.15056,-0.181,-0.027993,-0.002485,0.12505,0.22706,-0.002436,-0.20649,-0.027956,-0.12998,-0.027987,-0.33402,0.32905,0.45659,0.12504,-0.12998,-0.12999,-0.10446,-0.053433,0.09954,-0.10446,0.023041,-0.12996,-0.2065,0.022998,0.023017,-0.078972,0.12507,-0.027931,-0.078984,0.15058,-0.10449,-0.027987,-0.028005,-0.053495,0.048549,0.023047,0.22705,0.17607,-0.20647,-0.10447,-0.053439,-0.2575,0.048494,0.30354,-0.23196,0.099546,0.15054,-0.078947,-0.25746,-0.002436,-0.18099,-0.13002,0.35454,0.15054,0.15057,0.17606,-0.2065,-0.20651,-0.33396,-0.002381,0.17604,0.07402,0.12504,-0.028011,0.12503,-0.3595,0.09954,-0.078966,0.30356,0.074044,-0.15547,-0.15548,-0.027962,0.048567,-0.053458,0.074026,0.023035,-0.15545,-0.10445,0.023035,0.43106,-0.181,-0.002479,0.074013,0.20155,0.20155,-0.15548,-0.02792,-0.10444,-0.38497,-0.13001,0.25257,-0.078966,0.27798,0.38004,0.43109,-0.078947,-0.30847,-0.30847,-0.002443,-0.078959,-0.053495,0.17604,0.048536,0.12506,-0.10448,-0.283,-0.002461,-0.027969,-0.078959,-0.002485,0.09951,0.099521,-0.20648,0.17607,0.099564,-0.10447,-0.10447,0.12508,0.09954,-0.20649,-0.078959,0.20156,0.023047,0.0485,0.15054,-0.18098,-0.15548,-0.078972,-0.078941,-0.053458,-0.10449,0.023005,0.38006,0.48206,-0.00243,-0.078959,-0.15548,-0.28302,-0.027962,0.12505,0.074062,-0.053458,-0.002497,-0.053482,0.12504,-0.078966,0.023041,-0.053476,0.023065,0.074057,-0.28298,-0.10449,0.074002,0.048543,0.32908,0.48208,0.20156,-0.15544,-0.28294,-0.20649,-0.002503,0.099491,-0.002472,0.099528,-0.078972,-0.027987,-0.18096,0.023078,-0.30847,-0.23203,0.15052,0.023035,0.17607,0.25254,0.35454,-0.15548,-0.10445,-0.10445,0.023047,-0.10447,-0.15546,-0.07899,0.073989,0.38002,-0.078996,0.099583,0.099595,-0.28298,-0.10445,-0.23197,0.048567,0.048506,-0.13001,0.07402,0.15054,-0.13,0.12502,0.17607,0.048561,-0.28297,-0.3595,-0.002454,0.43107,-0.10447,-0.20647,0.099521,-0.18097,-0.12995,0.45658,-0.053495,-0.18101,0.074062,0.074044,-0.232,0.048525,0.12505,-0.078953,-0.18099,0.30355,0.43107,-0.10447,-0.10447,-0.18101,-0.12999,0.048543,-0.027956,0.074033,-0.027987,-0.002448,-0.25746,0.099559,0.099546,0.074026,-0.12999,0.20155,0.25256,-0.18097,0.023047,-0.10444,-0.18097,-0.28302,0.048518,0.25254,0.074038,-0.078972,-0.002467,0.12508,0.099564,0.023072,0.023035,-0.23199,-0.078996,-0.23201,0.17603,0.074044,0.048518,0.074026,0.20156,-0.23197,-0.15545,-0.002448,-0.002448,-0.10451,0.12505,-0.002461,-0.23199,-0.027956,0.43107,0.66058,-0.28298,-0.35952,-0.027998,-0.002448,0.15059,-0.23197,0.048549,-0.027974,-0.053488,-0.053464,-0.07899,0.15054,0.58408,0.38005,-0.56352,0.023047,0.15054,0.099564,-0.25748,-0.053433,-0.3085,-0.41051,-0.10447,0.35458,0.86459,-0.20648,-0.18098,-0.28298,-0.053464,0.22706,-0.15549,0.15057,0.25259,-0.10447,0.048531,-0.1045,-0.15549,0.048536,0.12507,0.023054,-0.002448,0.15054,0.02301,-0.25748,0.22707,-0.02798,-0.20649,0.074051,0.15058,0.074087,-0.30851,-0.20652,-0.078996,0.25253,0.12503,0.12504,0.074075,-0.18095,-0.232,0.074038,-0.027962,-0.12998,-0.15546,0.15054,0.48208,0.20155,-0.385,-0.23199,0.099552,-0.053482,-0.002472,0.25255,0.048536,-0.23198,0.048531,-0.23198,-0.28298,-0.12995,-0.002436,-0.002461,-0.12999,0.09954,0.023005,0.15052,-0.028005,0.048525,-0.10448,0.17609,-0.078923,-0.12996,0.15057,-0.12999,-0.20649,-0.1045,0.12504,-0.053458,-0.33399,-0.181,0.30355,0.5841,0.32905,-0.20648,0.023047,-0.18099,-0.053464,-0.078977,-0.053464,-0.027956,-0.28301,-0.027956,-0.02798,0.17608,-0.053439,0.17605,0.45654,0.15051,-0.33401,-0.027944,-0.053439,-0.334,-0.30849,0.048536,0.27805,0.023023,-0.028018,0.074038,0.074062,0.048573,-0.027925,0.048543,-0.078996,-0.10448,-0.002448,-0.23201,0.099491,0.099521,0.048543,-0.078941,-0.30846,-0.20648,-0.1045,-0.1045,0.38005,0.12504,-0.078953,-0.10447,-0.053464,-0.232,-0.232,0.048531,0.55858,-0.02795,0.17605,-0.002461,-0.002443,-0.12998,-0.20649,-0.20649,-0.078972,0.048555,-0.10447,0.27806,0.074044,-0.02798,-0.25751,-0.027998,-0.027993,-0.002461,-0.18097,0.074081,-0.02792,0.048543,-0.027998,0.048536,0.074051,0.09954,-0.20649,-0.12996,0.15057,-0.078996,-0.18101,0.099534,-0.002443,0.023017,0.22707,0.22709,-0.28297,-0.10448,-0.23197,-0.07899,-0.027969,0.099546,0.074069,-0.15547,0.099521,0.27803,0.074026,-0.027974,-0.078984,-0.10446,-0.20644,0.048525,0.048525,0.074038,-0.002467,-0.1045,-0.027987,-0.053451,0.17606,-0.053458,-0.10444,0.023072,0.12505,0.048506,-0.002472,-0.30849,0.023005,0.38007,0.27807,-0.12997,-0.30849,-0.027938,0.20156,0.35453,-0.1045,-0.12998,-0.078953,-0.027931,-0.12995,-0.28298,-0.2065,0.074013,0.32904,0.17603,0.32905,0.12503,0.074069,-0.12989,-0.25745,-0.25751,-0.25753,-0.20652,0.09951,0.074008,-0.078972,-0.027962,0.27808,0.3546,-0.41046,0.074033,-0.15549,-0.23201,0.023023,0.12503,-0.027969,0.17604,-0.053464,-0.15546,-0.10445,0.099552,0.074002,-0.2065,-0.053476,0.30356,0.12505,-0.12997,0.048543,-0.15544,-0.05347,0.022998,-0.078996,-0.002467,0.17604,0.12502,0.099534,-0.33404,0.023072,-0.20645,-0.078928,-0.002443,0.25255,-0.23201,0.27804,0.099515,0.074051,0.048561,-0.05347,-0.23198,-0.33399,0.12507,0.27808,-0.12996,-0.15548,0.12505,0.12501,-0.053488,-0.10448,0.17607,-0.078941,0.099546,-0.15551,0.048536,-0.15546,0.12504,0.048518,-0.15548,-0.078953,0.2781,0.12505,-0.0535,-0.38502,-0.027962,0.023029,0.074026,0.53309,0.12505,0.023054,-0.35947,-0.35949,-0.232,-0.15548,0.20153,0.12502,0.12504,0.45659,0.15057,-0.12996,-0.28299,-0.10446,0.17606,0.15054,-0.002454,-0.10447,0.17606,0.048518,0.15054,-0.027956,-0.027944,0.023059,0.20156,-0.078959,-0.002461,0.023029,-0.13002,-0.027969,0.12507,-0.20646,-0.10447,-0.053476,0.074044,0.32907,0.40556,-0.12998,-0.28301,0.27807,-0.23198,-0.00243,0.074051,-0.15547,-0.46148,0.15054,0.17604,0.048536,-0.1045,0.12502,0.023035,0.074075,-0.027969,0.048543,-0.002454,-0.3085,-0.12999,-0.027993,0.074033,0.30358,0.15057,-0.23197,-0.12996,-0.30847,0.099559,-0.10449,-0.027956,0.25251,0.48203,0.099497,0.023035,-0.25748,-0.12993,-0.25744,-0.10444,-0.053451,-0.027962,0.099497,0.40555,0.074062,-0.053446,-0.12996,0.17604,-0.12997,-0.15546,-0.38497,0.17602,0.55854,0.38002,-0.1045,-0.46151,-0.30846,-0.10445,-0.15546,-0.027938,0.1506,0.38006,0.12501,-0.23202,-0.027993,-0.079002,-0.027938,0.074087,0.20158,0.074013,-0.18099,-0.25748,-0.002479,0.12504,0.30357,-0.25751,-0.28302,0.048549,0.25257,-0.053458,-0.10447,0.074062,-0.002461,-0.28298,0.30356,0.40555,-0.15551,-0.35951,-0.18095,-0.12996,-0.20648,-0.02798,0.15054,0.25255,0.20153,0.17605,0.023047,-0.25748,-0.23198,-0.053482,0.048536,0.074062,-0.30849,0.09954,0.35459,0.12504,-0.23201,-0.0535,0.074038,-0.002436,-0.23198,-0.078959,-0.078959,0.35459,0.12506,-0.18101,-0.13001,-0.12999,-0.053446,0.099552,0.048518,0.15054,0.074038,-0.002448,-0.027962,-0.027969,-0.05347,-0.078966,-0.20647,0.023047,-0.2575,0.20155,0.30354,0.15052,0.074002,0.023023,0.15055,-0.23194,-0.23194,0.048555,-0.053488,-0.15548,-0.232,0.048487,0.20153,-0.002461,-0.18098,-0.002461,0.4821,0.023059,-0.027944,-0.002436,0.099534,-0.15551,-0.1045,0.023023,-0.027962,-0.02792,-0.002436,-0.053482,-0.027998,0.12504,-0.23201,0.15054,0.22704,0.30355,0.27806,-0.20645,-0.28296,-0.30847,-0.283,0.048536,0.12505,0.15054,-0.053488,0.048525,0.023035,-0.12997,-0.053458,-0.18097,0.30356,0.48205,-0.078984,-0.15548,0.17606,-0.30847,-0.18095,-0.30849,-0.10449,0.20155,-0.05347,0.099546,0.17603,0.099528,0.048531,-0.02795,-0.002467,-0.053464,-0.053458,-0.002461,0.099528,-0.283,0.17604,0.074038,-0.053451,-0.10448,-0.002454,0.048573,-0.027925,0.074075,0.17602
2,0.048512,0.22704,-0.078984,-0.027956,0.048585,-0.10447,-0.15549,0.12504,0.15057,0.17604,-0.00251,0.023017,0.023047,0.074051,-0.02795,-0.12998,-0.20649,-0.12997,0.22706,-0.053488,-0.002436,0.048531,-0.078959,-0.15545,-0.12998,0.30351,0.63506,-0.35946,-0.33399,-0.002491,0.40558,0.25257,-0.12999,-0.41047,-0.56348,0.15058,0.63508,-0.078996,-0.46151,0.25256,0.55856,0.25252,-0.002503,-0.002436,-0.61449,0.048506,0.023059,0.17607,-0.12995,-0.15547,0.22704,0.023023,0.048536,-0.10447,-0.33401,-0.10445,0.09957,0.048536,0.023017,0.17604,0.22706,0.38005,-0.15551,-0.28298,-0.078947,-0.12996,-0.053482,0.32902,0.074051,-0.12995,-0.41048,0.20156,0.27803,-0.078996,0.023047,-0.078947,0.048561,-0.25751,-0.436,0.22706,0.12503,0.02301,0.25257,0.074038,-0.25748,0.023041,0.099564,0.074044,-0.002503,-0.027974,0.074026,0.32902,0.20156,-0.00243,-0.41049,0.074069,-0.53795,-0.12994,0.2525,0.35454,0.15056,0.30355,-0.28297,-0.18098,-0.23196,-0.18094,-0.002467,0.17603,0.074033,-0.053495,0.074033,0.15055,0.15054,-0.20648,0.12506,-0.002467,0.12507,-0.002479,-0.28298,-0.053488,-0.12999,-0.027962,0.074044,-0.078977,0.22707,0.58407,-0.28299,-0.51247,-0.23197,-0.028005,0.22704,0.15054,0.048512,-0.002448,0.09957,-0.053464,-0.10445,-0.078984,-0.027974,0.074062,0.17604,0.40557,0.074062,-0.33399,-0.078959,0.074069,-0.002479,-0.027993,0.15053,-0.10447,-0.027993,0.43106,-0.027931,-0.25748,-0.053439,-0.15547,0.048585,-0.25748,-0.053525,0.07402,0.22706,0.38006,0.25254,0.099595,-0.027938,-0.30847,-0.283,-0.28301,0.17606,0.15052,-0.20654,-0.25753,-0.053482,0.25258,0.15057,0.12505,-0.10444,-0.027956,-0.23197,0.15054,0.20155,-0.0535,-0.027993,-0.20647,-0.25747,0.048536,0.20153,-0.053476,-0.15548,-0.053464,0.53308,0.27803,-0.027969,-0.15546,-0.38496,-0.07899,0.17604,-0.25748,0.074033,0.048525,-0.181,0.22704,-0.027944,-0.10446,0.023059,-0.078984,-0.078984,0.17603,0.15055,-0.078977,0.023017,-0.078984,0.048543,-0.20647,-0.12998,-0.12998,0.17607,-0.12998,-0.15549,0.35454,0.12503,-0.078972,-0.05347,-0.078959,-0.12996,-0.078953,-0.053476,0.22705,0.099559,0.048561,-0.1045,0.25252,0.48208,-0.10446,-0.053464,-0.20648,0.074069,-0.28297,-0.053464,-0.07899,0.048512,0.099515,0.15054,0.023054,-0.053415,-0.027944,0.12508,0.15054,-0.027993,0.25254,0.0485,0.023047,-0.33398,-0.18097,0.074081,0.023054,-0.05347,0.15054,0.45656,0.22706,-0.385,-0.18099,-0.13001,-0.23198,-0.18098,0.099559,0.048549,0.099534,-0.15548,0.22703,0.17604,0.22708,0.048549,-0.12998,-0.20648,-0.20647,0.023041,-0.078996,-0.002461,-0.002454,0.099528,0.27806,0.023047,0.17604,0.12505,-0.18099,-0.20647,-0.46147,-0.30849,0.15054,0.35453,0.43104,0.20156,0.023084,-0.053451,-0.078977,-0.002454,-0.002479,0.048536,-0.078972,-0.027962,-0.002467,0.074062,0.023059,-0.053451,-0.027974,-0.18101,-0.13,0.048531,0.35456,0.12504,0.25256,0.50755,-0.232,-0.38498,-0.51248,0.099595,-0.00243,-0.002461,0.074013,0.099528,0.048531,0.15053,-0.002485,-0.053482,-0.18096,-0.002461,-0.027969,0.15056,0.17604,0.15054,0.023054,-0.002454,0.023035,-0.28295,-0.38499,0.27806,0.27805,-0.10447,-0.18097,0.35454,0.22705,-0.027956,0.074057,0.09954,-0.13,-0.10445,-0.23197,0.099583,0.023035,0.073995,0.17604,-0.027944,-0.053482,-0.002467,-0.18097,0.074062,-0.027962,-0.053482,0.074033,-0.078984,-0.12996,-0.078996,0.023029,0.074038,0.38009,-0.078959,-0.18098,0.20155,0.074062,-0.232,-0.20651,-0.078996,-0.10445,0.09954,-0.053458,0.099577,0.074069,0.15054,0.099528,0.22704,0.30352,-0.027974,-0.4615,-0.46151,0.15057,0.12509,0.074069,-0.23199,-0.02798,0.099503,0.17604,-0.053458,0.048543,-0.027962,0.12505,0.20158,-0.28298,-0.23198,-0.053506,0.20154,-0.12997,0.12504,0.35456,-0.12999,-0.078984,-0.15545,-0.28295,0.15056,0.50757,-0.25752,-0.053476,0.048561,0.45657,0.30356,-0.61452,-0.53798,-0.28298,0.48207,0.22702,0.20153,-0.10449,0.074069,-0.23197,-0.43599,-0.002418,0.12507,0.048531,-0.002491,-0.002485,-0.15551,0.45654,-0.232,-0.053451,0.15057,-0.02792,-0.20646,-0.1045,-0.71656,0.40555,0.35456,-0.053476,0.074013,-0.078959,-0.10444,-0.002454,-0.12998,0.023035,-0.15552,0.22703,0.32905,0.09954,-0.20644,-0.28297,-0.18097,-0.23198,-0.28297,0.12505,0.20155,0.35454,0.15051,0.12502,0.12503,0.023047,-0.23196,-0.5635,0.048531,0.30355,-0.002448,0.023035,-0.10451,-0.41049,0.099552,0.43108,0.35456,-0.33398,-0.078966,0.02301,0.15054,-0.078959,0.099534,0.02301,-0.20649,0.023059,0.074075,-0.2575,0.12505,0.023041,-0.20648,0.023029,0.30355,0.22706,-0.18098,-0.053495,0.25256,-0.078959,-0.10447,-0.2065,-0.20647,0.099546,0.074044,-0.053476,0.074038,0.22705,0.32904,-0.053458,-0.43597,-0.078947,-0.12998,0.048549,-0.002472,-0.181,0.12504,0.048561,-0.027956,-0.053506,0.38006,0.32905,-0.18099,-0.15546,0.023047,-0.12996,-0.05347,-0.28302,-0.41048,0.12504,1.0686,-0.30847,-0.078984,-0.053488,-0.181,-0.027962,0.30358,0.099546,0.023054,-0.20646,-0.053427,-0.027962,-0.10449,0.15051,0.023005,0.20156,0.20155,0.023035,-0.053446,-0.25748,0.12509,-0.027974,-0.41052,0.17601,0.40556,-0.02798,0.023059,0.15059,-0.20647,-0.10445,-0.078928,-0.35951,-0.1045,0.32905,0.20151,0.17605,0.22707,0.12504,-0.053458,-0.33396,-0.078953,-0.053488,0.023035,0.27805,0.25256,-0.027969,-0.12999,-0.20647,-0.18095,0.074033,-0.05347,-0.15548,-0.30846,-0.10446,0.73702,0.73703,-0.181,-0.15544,-0.10443,-0.23195,-0.12993,0.20158,-0.078977,0.099503,-0.002472,0.022992,0.17605,-0.078966,-0.053458,-0.23198,-0.078966,-0.002485,0.15054,0.27803,0.12505,0.17606,0.48209,-0.35948,-0.436,-0.15549,0.27803,-0.078972,-0.12996,-0.002448,0.17606,0.30355,-0.18098,-0.385,-0.10448,-0.053464,0.074051,-0.10449,0.048555,0.48205,0.15054,0.27803,-0.078959,-0.23193,-0.28295,-0.25748,-0.23203,0.30355,0.20154,0.22706,0.048543,-0.25748,0.023029,0.074038,-0.33398,-0.28298,-0.12998,-0.12999,0.023035,0.32907,-0.027987,0.074013,0.22705,0.12505,-0.002423,-0.23199,0.15054,-0.23198,-0.027969,0.25254,-0.002503,0.048543,-0.15545,-0.20646,-0.15546,-0.002448,0.048536,-0.027993,0.074038,0.023054,0.048536,0.07402,-0.078996,-0.18098,-0.33398,0.12506,0.5076,0.12504,-0.002472,-0.33402,-0.12999,-0.027974,0.023041,0.17606,-0.078959,-0.18095,0.20156,0.048567,-0.15546,-0.38503,0.30352,0.6351,0.35457,-0.385,-0.58903,0.048543,0.023059,-0.078959,-0.002461,0.074051,0.023005,-0.079002,0.15054,0.30358,-0.02795,-0.078947,-0.10447,-0.41051,-0.053464,0.45659,0.32905,-0.053482,-0.25749,-0.20647,0.15054,0.12505,-0.027974,-0.12995,-0.23193,0.048573,0.43104,0.60957,-0.3595,-0.25749,0.048525,-0.053482,-0.23198,-0.35949,0.023035,0.48209,-0.20647,-0.027974,0.22705,-0.20649,0.048525,0.074038,-0.15547,-0.12996,0.15056,0.32907,0.15054,-0.20649,0.048525,0.023047,-0.10445,-0.027944,0.074051,-0.1555,-0.002467,0.12504,0.17604,0.20156,-0.078941,-0.25748,0.15055,0.25254,0.22706,-0.23195,-0.20646,-0.078966,0.099546,0.38005,-0.15548,-0.283,0.12504,0.023054,0.023041,-0.2065,-0.078977,0.074038,0.20153,-0.07899,0.099559,0.17603,-0.078984,-0.12998,-0.002436,-0.10449,-0.15551,0.15056,0.023059,-0.20649,0.15053,-0.02795,0.048555,0.17604,-0.56351,-0.078972,0.50755,0.27803,-0.30851,-0.18098,-0.13,0.023023,0.023047,-0.12994,-0.053415,0.048567,0.048512,0.38003,0.20153,-0.027987,0.048549,-0.027938,-0.10446,-0.053458,-0.078947,-0.33398,0.074038,0.15052,0.023035,-0.12998,-0.23197,0.25257,0.63507,0.27805,-0.12994,-0.41051,-0.385,-0.15545,0.048512,0.27806,0.023059,0.099546,-0.13001,-0.15549,0.048567,-0.027969,0.35458,0.048555,-0.053495,-0.1045,0.12502,-0.027956,-0.20645,-0.053439,0.074057,0.023035,0.22704,0.12503,0.22704,-0.18098,-0.12995,-0.15546,-0.30847,-0.20648,0.12506,0.12503,0.048536,-0.1045,0.099515,-0.15553,0.20152,0.20155,0.048555,-0.053415,-0.18094,0.099559,0.20153,0.099534,-0.23198,-0.12998,-0.15548,-0.15549,0.17607,0.023047,0.22705,-0.15551,0.22704,-0.002467,-0.05347,-0.027969,0.023035,-0.078941,0.048543,-0.18098,0.30357,0.099528,0.07402,0.099528,0.17609,0.048555,-0.15546,-0.00243,0.048536,-0.053488,-0.18097,0.048518,0.38003,0.023035,-0.18098,-0.232,-0.12998,0.074069,-0.027969,-0.078966,0.12507,-0.002454,0.074038,0.09954,0.17603,0.32907,0.22707,-0.25746,-0.12999,-0.41049,-0.078953,-0.12999,-0.002467,0.048512,-0.002491,0.15056,-0.20647,0.099528,0.53309,-0.10445,-0.38501,0.27806,-0.28297,-0.027969,0.15055,-0.027962,0.27806,0.074051,-0.18094,-0.12994,-0.053519,0.023029,-0.053482,0.22705,0.22706,0.099546,-0.027962,-0.10445,0.023029,0.099546,0.074057,-0.35949,-0.053464,0.12505,-0.027987,0.43105,0.50754,-0.078977,-0.43596,-0.12993,-0.002461,-0.28301,-0.027969,0.15057,0.074038,0.20153,-0.07899,-0.027969,0.048561,-0.18099,0.02301,0.099546,0.12507,-0.12998,-0.25752,0.20155,0.32905,-0.053446,-0.15548,-0.13,0.32905,-0.23196,-0.35948,-0.20648,0.074026,0.6606,0.20156,-0.15547,0.099546,-0.30847,-0.027969,0.12505,-0.30849,0.17604,0.22705,0.023041,-0.027962,0.023041,-0.053464,-0.20647,0.17604,0.20154,-0.053446,-0.002467,0.0485,0.099528,-0.28297,0.023029,0.45659,-0.12995,-0.283,0.048536,0.099534,0.099528,-0.1555,0.27804,-0.078966,-0.10446,-0.25749,-0.20649,0.20158,0.25258,-0.20647,-0.078984,0.30355,0.25254,0.023023,-0.18098,-0.18095,0.048555,0.15054,0.023023,-0.12999,-0.078966,-0.027956,0.25256,-0.002491,-0.078977,-0.053458,0.22706,0.048536,-0.18101,0.048512,0.023041,-0.18098,0.15054,-0.078947,0.048585,-0.002436,-0.078959,0.22707,0.074057,-0.20651,-0.053525,-0.10452,0.15054,0.023054,0.099564,0.43108,0.023029,-0.12997,-0.48699,-0.18095,0.023035,0.40553,0.48205,0.30355,-0.41047,-0.25746,-0.23197,-0.28297,-0.002454,0.15054,0.099515,-0.20648,0.09954,0.43108,-0.10449,-0.25751,-0.078972,0.12505,-0.12998,-0.078972,0.099534,0.048549,0.074044,-0.027962,-0.20648,-0.15546,0.20155,-0.002472,0.07402,0.023029,-0.30851,-0.1555,0.048561,0.074069,0.048518,-0.436,0.074044,0.17603,0.25254,-0.20647,-0.078959,0.22705,0.30353,-0.002467,-0.18096,-0.15546,-0.12998,-0.23199,-0.18098,0.15057,0.15055,-0.028005,-0.028005,0.12504,0.12504,-0.10447,-0.00243,0.22707,0.099521,0.09954,-0.10444,-0.33399,-0.078996,0.12506,-0.027956,0.023059,-0.10447,-0.35951,0.20152,0.55859,0.38009,-0.18098,-0.027969,-0.12998,-0.18098,-0.078959,-0.15545,-0.002467,0.048487,-0.027998,0.09954,-0.15547,-0.12996,0.53308,0.048531,-0.078972,0.023072,-0.18094,-0.10447,-0.053476,0.048536,0.074013,0.074033,-0.002472,-0.23198,-0.18096,0.20155,0.35453,-0.18098,-0.12998,0.023047,0.023035,0.023047,-0.20647,-0.078959,-0.002423,0.32907,-0.10449,0.073995,0.27803,-0.25748,-0.18096,0.048536,-0.078977,-0.053482,-0.12997,-0.23196,0.12507,-0.05347,0.12503,-0.027974,0.0485,0.20153,-0.002472,-0.05347,-0.078972,-0.027913,-0.15547,-0.15549,-0.15546,-0.002479,0.50759,0.074033,-0.002472,-0.053451,-0.12997,-0.002467,0.074051,-0.12999,-0.15549,-0.027998,-0.053488,0.53306,0.27806,-0.23195,-0.027938,-0.078972,0.074044,-0.053458,-0.334,0.023023,0.32907,0.12503,0.099521,-0.35948,-0.10445,-0.053458,0.048531,0.023047,0.074044,0.32904,0.22705,-0.027956,-0.10447,-0.053482,-0.23199,-0.18097,0.15054,0.048543,0.074051,0.20153,-0.25748,0.023072,0.25257,-0.20647,-0.027944,-0.12995,0.023023,-0.18101,-0.28302,0.12501,0.2015,0.25254,0.15056,-0.027969,-0.15545,-0.18097,-0.15548,0.099559,-0.10447,-0.078966,0.048531,0.12505,-0.23199,-0.002467,0.048543,-0.30851,0.40557,-0.027962,-0.23201,0.048531,0.048549,0.074062,0.20156,0.099564,-0.18097,-0.38498,0.15058,0.63507,-0.078984,0.12504,0.099534,-0.41054,-0.20648,-0.20649,-0.12999,0.15059,0.27808,-0.078972,0.074062,-0.002472,-0.15551,-0.027969,0.22704,0.48206,-0.20646,-0.078953,-0.078959,-0.20646,0.099546,0.17604,-0.027974,-0.12999,-0.15548,-0.002461,-0.053446,-0.002448,0.30355,-0.078972,0.02301,-0.078959,-0.10449,-0.12999,-0.027969,0.099552,0.074069,0.048549,0.074038,-0.027969,-0.41051,0.023059,0.074013,0.22704,0.12505,-0.12998,0.27806,0.12509,-0.053464,0.074051,-0.56351,-0.23201,-0.027969,0.09954,-0.053482,0.023035,0.099534,0.20152,0.074051,-0.18098,-0.15547,-0.30845,0.30356,0.45656,0.023065,-0.18097,-0.18099,-0.18097,-0.078972,-0.30852,-0.002485,0.53307,0.20153,-0.002485,-0.23196,0.20155,-0.18099,0.35459,-0.12993,-0.12998,-0.13,-0.05347,-0.23199,-0.053495,0.27805,0.12502,-0.078947,-0.35946,-0.027987,0.099534,0.15057,0.099583,-0.002479,-0.18102,0.09954,-0.002454,-0.38499,0.099546,0.099521,0.20153,-0.15549,-0.027956,-0.027962,0.023059,-0.20648,0.074033,-0.12997,-0.15546,0.17607,-0.25747,0.099559,0.45654,0.048487,-0.2065,-0.078977,-0.05347,0.099546,-0.053464,-0.18096,-0.002472,0.15052,-0.18097,0.048543,0.35456,-0.15547,-0.027969,0.3546,0.12504,-0.38501,-0.15548,0.099559,-0.027993,0.12502,0.12507,-0.12997,-0.13,0.22707,-0.078947,-0.12998,-0.1555,0.12504,0.38007,-0.15547,-0.002479,0.12504,0.15057,-0.15545,-0.10446,-0.15546,-0.078966,0.12503,-0.053488,0.099521,0.099552,-0.10447,-0.002472,-0.23196,0.58407,0.12502,-0.23199,-0.20647,-0.20649,0.15054,0.074051,0.023065,-0.20647,-0.027969,0.074038,0.17604,-0.15548,-0.053439,0.023054,-0.002516,0.25253,0.17604,-0.4615,-0.23195,0.32907,0.6861,-0.38499,-0.28297,-0.23198,-0.30851,-0.13001,0.25255,0.40557,0.12506,-0.12998,-0.10449,-0.18099,-0.10448,0.023059,0.22704,0.20153,0.023035,0.27808,-0.20646,-0.15548,-0.002461,-0.027974,0.074051,-0.25748,0.074038,0.023017,0.023035,-0.12999,-0.18098,0.023041,0.45661,-0.25745,-0.10447,0.30355,-0.002491,-0.20647,0.023047,0.048555,-0.027956,-0.10449,0.12502,0.25255,0.023041,-0.10449,-0.2065,0.20153,0.048555,-0.12995,0.023059,-0.12998,0.099528,-0.18098,0.074051,0.20153,0.022998,0.07402,-0.027969,-0.25746,-0.25746,-0.078977,0.55855,0.074033,-0.436,0.074062,0.074013,-0.053488,0.099552,0.3291,-0.12998,-0.33399,-0.10446,-0.12998,0.12505,0.38006,0.023047,0.023029,-0.12998,-0.18097,0.20157,0.15055,0.023029,-0.10446,-0.10448,0.048549,0.048536,0.12502,-0.10452,0.25259,-0.15545,-0.15548,-0.053451,-0.10446,-0.20649,-0.33403,0.22704,0.43107,0.099564,-0.027938,-0.18097,-0.18097,0.074026,-0.10447,0.048536,-0.027962,-0.078972,0.023023,0.048512,-0.053476,-0.027956,-0.027938,-0.18098,0.15054,0.074038,-0.053458,0.023029,0.12502,-0.002454,0.17607,0.12506,-0.23199,-0.12997,-0.02795,0.023029,-0.079008,0.17603,0.048561,-0.181,-0.2065,0.09954,0.12509,-0.35946,-0.002472,0.43106,0.023023,-0.1555,0.27805,-0.10449,-0.38498,-0.20646,0.048525,0.074069,0.074069,-0.002479,0.023035,-0.10447,0.15054,0.20154,0.048549,0.074062,-0.12998,0.074038,-0.23197,-0.027969,0.099528,-0.002472,-0.027956,-0.002467,-0.12999,-0.027944,-0.25748,0.22705,0.17604,-0.23199,-0.25746,0.048518,0.25251,-0.15546,0.15057,0.074044,-0.002461,-0.15546,-0.10446,0.32903,0.17604,-0.002461,-0.027969,-0.027956,-0.20646,-0.23198,-0.20649,-0.00243,0.22705,0.07402,-0.10449,0.27805,0.074026,-0.23198,-0.15548,0.17604,0.023041,-0.12994,-0.20648,-0.002467,0.25252,0.25252,-0.28297,-0.20649,-0.053495,0.27806,-0.18094,-0.10441,-0.053433,-0.053476,-0.027987,-0.027993,0.22702,0.15051,0.074033,-0.10445,-0.078941,0.099559,-0.12998,-0.12999,-0.0535,0.074057,0.09957,-0.10445,0.048543,0.023023,-0.027962,-0.053451,-0.10449,0.023023,-0.078947,-0.12996,0.074033,0.15052,0.48206,0.023059,-0.35946,-0.002461,-0.078984,-0.20649,-0.078977,-0.002467,0.15056,0.048536,0.17606,0.074026,-0.15546,-0.20648,0.074057,-0.10445,-0.05347,0.2015,0.12502,0.30355,-0.027962,-0.10446,-0.10445,-0.20647,-0.10447,0.20156,0.30353,-0.053488,-0.1555,-0.053458,-0.18097,0.099564,-0.078972,0.023035,0.12505,0.099534,-0.25749,-0.13,0.099528,0.074038,-0.027987,0.023047,0.048555,-0.002443,-0.053482,0.09954,0.12504,-0.12999,0.023035,-0.12995,-0.078966,-0.18098,0.074044,0.32906,-0.18098,-0.3085,0.099546,0.30353,0.15056,-0.053464,-0.078959,-0.10445,-0.20649,-0.078972,-0.1045,-0.10449,0.27805,0.55859,-0.053476,-0.10447,-0.23199,0.25258,-0.053439,-0.002448,-0.12997,-0.027962,-0.30851,-0.15546,0.15054,0.15051,0.32904,0.15054,-0.078941,-0.12995,-0.15546,-0.38502,-0.053482,0.32905,0.35457,-0.12996,-0.027969,-0.12999,-0.05347,0.074069,-0.002436,0.023035,-0.53801,0.20153,0.45658,-0.20647,-0.027974,0.17605,-0.002479,0.023054,-0.078977,-0.18099,-0.002467,-0.15547,0.15056,-0.20648,0.17603,0.20157,0.099577,-0.10445,0.048555,0.023029,-0.07899,0.022998,0.074026,0.048549,-0.18097,-0.002467,-0.10445,-0.027925,-0.002448,0.048525,0.099515,0.17604,0.099546,0.15056,-0.12998,-0.283,-0.078935,-0.002454,0.15054,0.099528,-0.12997,-0.23201,0.048518,-0.078972,0.27806,-0.002467,0.17606,-0.027938,-0.15546,0.15056,-0.078953,-0.002503,-0.10445,-0.053446,0.27806,0.023047,-0.20649,0.023047,0.048512,0.12501,0.15054,-0.002467,0.023047,0.023041,-0.12996,0.023078,-0.053439,-0.10447,-0.027987,0.023023,-0.12998,0.099528,0.074026,0.048531,0.17606,0.17608,-0.30847,-0.28297,-0.078977,-0.02798,0.17604,-0.078959,0.38006,0.15054,0.35458,-0.15546,-0.33396,-0.20647,-0.027998,0.099515,-0.078984,-0.002454,0.023035,0.099559,-0.10449,-0.078972,-0.10445,-0.002454,0.048518,0.12504,0.12502,0.12505,-0.12996,0.074062,-0.10447,0.099534,-0.25748,-0.027944,0.20156,0.023035,0.02301,0.048536,-0.2065,-0.02798,0.048555,0.09954,0.074062,-0.078959,-0.10449,-0.07899,0.023041,0.074051,0.099564,-0.10449,0.15056,-0.053446,-0.33398,-0.20649,-0.12999,0.074051,0.12506,0.17603,0.30352,0.074026,-0.053458,-0.20646,-0.23197,-0.078959,-0.053488,-0.053476,-0.053464,0.17604,0.07402,0.22704,0.15056,-0.027956,0.17607,-0.23198,-0.2065,-0.23201,0.32905,0.17606,-0.15547,-0.15548,0.099559,0.023047,0.048555,-0.15545,-0.027969,0.27804,0.099552,-0.18099,0.048525,0.048536,-0.13,-0.002461,-0.027962,0.023047,0.048567,-0.027962,0.023035,0.15054,0.22704,-0.12995,-0.18101,-0.12999,0.22705,-0.027969,-0.053421,-0.15548,0.023035,-0.053476,-0.002491,0.17607,0.15055,-0.002454,-0.078947,-0.10447,-0.12999,-0.15549,0.27804,0.25256,0.48205,-0.078972,-0.20649,-0.25748,-0.12992,-0.027944,0.048549,-0.002461,0.099503,0.048512,-0.30849,0.17604,0.68609,-0.027931,-0.35948,-0.33398,-0.25744,-0.12997,0.074013,-0.053482,-0.002485,0.12503,0.27805,0.099534,0.20153,-0.28297,-0.12998,0.023029,0.023035,0.023047,0.048561,-0.053464,-0.18097,-0.10448,-0.002454,-0.078953,0.074013,-0.027956,0.048525,0.32899,-0.15551,-0.41049,-0.002472,0.048567,0.50761,-0.28297,-0.25749,-0.053451,-0.002472,0.074008,0.02301,0.023035,0.17607,-0.20648,-0.334,0.15053,0.45659,-0.10448,-0.05347,0.22704,-0.10448,-0.23197,0.023041,0.099559,-0.15546,-0.078966,-0.053488,0.074038,0.15055,-0.027969,0.17605,-0.10449,0.12504,0.30357,0.074038,-0.5125,-0.027956,0.023041,-0.10447,-0.3085,-0.002467,-0.002467,0.074038,0.20155,-0.18097,0.048525,0.38007,0.20154,0.023047,-0.12999,-0.05347,-0.078947,-0.15548,0.048543,-0.18095,-0.23198,0.38008,0.023041,-0.05347,0.15052,0.27805,-0.02798,-0.05347,0.048543,0.17604,-0.23197,-0.30848,-0.10449,-0.002479,0.12502,-0.078984,0.22708,0.25256,0.048543,-0.12995,-0.3085,0.22706,-0.12997,-0.1555,0.17603,0.32907,0.35454,-0.30847,-0.10443,0.048543,-0.078972,-0.053476,-0.079014,-0.12998,-0.027969,-0.078996,0.048536,-0.12996,-0.12996,0.15057,0.12505,-0.078977,0.048555,0.22705,0.074013,-0.43603,-0.18099,0.20155,-0.002443,-0.053427,-0.10447,-0.053495,0.12504,-0.053476,0.25253,0.17605,-0.35947,-0.078977,0.22705,0.22707,-0.20648,-0.18098,-0.18097,-0.027956,-0.053488,0.074051,0.22705,0.43104,-0.10447,-0.002448,-0.43598,-0.23198,0.074044,0.15056,-0.002472,0.12501,0.074013,0.048531,0.099546,-0.20647,-0.2065,0.43107,-0.12998,0.023047,-0.078972,-0.15548,0.023035,-0.002461,-0.12996,-0.30846,0.048531,-0.027998,-0.078996,-0.13,0.20153,0.32907,-0.053464,-0.12997,-0.027944,-0.15545,0.023035,0.048536,0.25252,-0.002448,-0.002461,0.074038,0.15056,-0.027974,0.17606,-0.12996,-0.15544,-0.002479,0.023017,0.023029,-0.078984,0.32907,0.35456,-0.15549,-0.25747,-0.25744,-0.25746,0.17607,-0.027944,0.048531,0.27802,0.25253,0.099552,-0.027974,-0.2575,-0.12996,-0.00243,-0.20647,-0.002485,0.17606,0.023029,-0.07899,0.20155,-0.33399,-0.027956,-0.002472,0.048549,-0.10444,-0.078966,0.17603,0.38005,0.048561,-0.078972,-0.2575,0.20155,-0.053439,-0.48702,-0.18102,0.074051,-0.15547,-0.027974,0.32907,0.22706,-0.20652,-0.002479,0.048561,-0.053464,-0.23197,-0.002479,-0.2065,0.25256,0.17605,0.25255,-0.10445,-0.15545,-0.25746,-0.053476,0.048506,0.15055,-0.002467,0.20153,0.22705,-0.23198,-0.283,0.099552,0.12505,-0.38502,0.074038,-0.18097,0.023035,-0.028005,0.15057,0.15059,-0.15546,-0.078947,-0.05347,0.048543,-0.002461,-0.027956,0.17604,0.27805,-0.053482,-0.053488,-0.002485,-0.10447,-0.18099,-0.18098,0.048555,-0.002479,0.20158,-0.027969,0.25256,0.12506,0.12504,-0.053482,-0.20648,-0.053482,-0.053464,-0.053482,0.074026,-0.18098,0.15055,0.048531,0.25255,0.048573,-0.10445,-0.18095,-0.053446,-0.053476,0.55858,0.38006,-0.35953,0.12504,0.074051,-0.23199,-0.283,-0.25745,-0.002448,0.27806,0.048549,-0.10449,0.023029,-0.002461,-0.0535,0.45655,0.12507,-0.12996,-0.10445,-0.12996,-0.078984,-0.002461,-0.027944,0.099534,0.20154,-0.181,-0.07899,-0.053464,-0.02798,0.12503,-0.027962,-0.078972,0.099546,0.023065,0.048531,0.30356,-0.20646,-0.30851,0.12505,-0.18097,-0.1555,0.12504,-0.02795,0.15054,0.023023,-0.053451,-0.18097,0.074038,-0.053464,-0.027956,-0.13001,0.22704,0.12505,0.048536,-0.053476,-0.078947,0.12508,-0.002443,0.1251,-0.25751,-0.28303,0.32905,0.099521,0.023041,0.3036,-0.027938,-0.10446,-0.15545,-0.28298,-0.12998,0.023041,0.20153,0.60955,-0.10447,0.023029,0.023047,-0.002448,-0.18098,0.048555,-0.053446,0.20155,0.074013,-0.027969,0.12505,-0.002485,-0.15546,-0.23199,-0.10446,0.27809,-0.078972,0.048518,0.15053,-0.10447,-0.027962,0.074026,-0.027969,-0.15549,0.22703,0.15059,-0.28298,-0.15548,0.12507,-0.10447,0.074026,0.22705,-0.002448,-0.078984,-0.078972,-0.078959,0.048531,0.12503,0.17605,0.17601,-0.027944,-0.027938,-0.002454,-0.33398,-0.181,0.048585,0.048531,-0.002491,-0.078996,0.12502,-0.053458,0.099552,0.12509,-0.23197,0.074044,0.074038,-0.12998,-0.18099,0.12503,0.22704,0.12504,-0.027956,0.023054,-0.078972,-0.35948,-0.10448,0.12504,0.15056,0.12501,-0.15553,0.15054,0.35461,-0.078935,-0.30847,-0.23198,0.048536,-0.027938,0.20154,0.022998,0.074051,-0.002461,-0.13,-0.078972,-0.10445,-0.12993,0.20158,-0.1045,0.023035,0.35456,-0.12999,-0.1555,0.074062,0.12505,0.17606,-0.23197,-0.15549,-0.05347,0.25254,0.32904,-0.18101,-0.078984,0.023078,-0.12995,-0.41045,-0.35947,0.38006,0.25252,0.099515,-0.002454,-0.078977,-0.002472,-0.12998,-0.053446,-0.12998,-0.18099,0.023029,0.048549,0.074062,0.40556,-0.027998,-0.15549,0.048536,0.074069,-0.30847,-0.053476,0.023059,-0.12999,0.023041,0.048531,0.023023,-0.078984,0.048525,0.38008,-0.10445,-0.33398,-0.078984,0.40557,0.048543,-0.28296,-0.15548,0.048531,-0.1045,-0.18096,0.15059,-0.053476,0.15053,-0.027962,0.17606,0.43105,0.074026,-0.12997,-0.15547,-0.053458,0.048536,-0.18097,-0.28297,-0.28299,0.12502,0.09954,0.43108,-0.002479,0.023017,-0.10447,-0.25745,-0.15546,0.27808,0.20155,-0.20649,-0.15549,-0.002485,0.27806,0.30356,-0.18097,-0.28298,-0.48699,0.43106,0.048536,-0.181,-0.053476,-0.053482,-0.053495,0.074038,-0.002454,-0.12995,-0.10446,-0.053458,0.12505,0.35458,-0.027974,-0.053495,-0.002485,-0.18098,-0.15546,0.099552,0.048525,-0.05347,0.023047,0.099559,0.099546,-0.12998,-0.027993,0.12505,0.023041,-0.33399,-0.12999,0.048561,0.30356,0.048536,-0.12999,0.15052,0.09954,0.2271,-0.053446,-0.30849,-0.053446,-0.027969,0.12505,0.15054,-0.15548,-0.027962,0.30355,0.30357,-0.10447,-0.20648,-0.181,0.074038,0.048518,-0.027987,0.17606,0.17607,0.20158,-0.02795,-0.10447,-0.2575,-0.027962,0.048543,0.27803,0.099534,-0.12998,-0.12997,-0.027974,0.30359,-0.20647,-0.436,0.048543,0.074062,-0.02798,-0.002497,0.12502,0.099534,0.12502,0.15056,-0.053464,-0.20646,-0.12995,0.023035,0.20155,-0.35948,0.15055,0.074013,-0.12998,-0.002467,-0.053495,0.023047,-0.20649,0.22706,0.20157,0.22705,0.099546,0.023047,-0.15549,0.099521,-0.18097,-0.18096,-0.027944,0.22709,0.15056,-0.15551,-0.002479,0.17604,-0.12998,0.12502,0.023035,0.074033,-0.2065,0.25257,-0.12994,-0.12996,0.048543,-0.027969,-0.35953,-0.078972,0.45658,0.58409,-0.12995,-0.20649,-0.078972,-0.12999,-0.10451,-0.053495,0.20156,-0.00243,-0.12995,-0.10447,0.023047,0.38008,-0.053495,0.1505,0.099521,-0.002461,0.023065,-0.027969,-0.15546,-0.12995,-0.30847,-0.12998,-0.12998,0.20153,0.38006,0.099546,0.20158,-0.15549,-0.027969,0.099546,-0.00243,0.023059,-0.053476,-0.027969,0.023029,0.023029,0.17604,0.048531,-0.078977,-0.002443,-0.002467,-0.027956,-0.027969,0.048536,0.17606,0.12507,-0.10447,-0.12998,-0.078977,0.17605,-0.078966,0.074062,-0.053458,-0.15548,-0.1555,0.074026,0.15055,-0.05347,-0.027993,-0.027987,-0.078959,0.17609,-0.23196,-0.002461,0.38006,0.074044,-0.12998,0.12504,-0.12998,0.023054,-0.078941,0.023059,-0.20648,0.35453,0.09951,-0.027969,-0.15546,-0.15548,0.12505,0.27805,-0.078953,-0.20648,-0.10444,0.12503,0.22703,0.17604,-0.07899,-0.2065,-0.18094,-0.10444,-0.002454,-0.02795,0.25255,0.048525,-0.2065,0.30355,0.22703,0.12504,-0.15548,-0.027938,-0.30844,-0.15543,0.20157,-0.078996,-0.23201,0.1505,0.22704,0.023035,0.099559,-0.053446,-0.25747,0.074038,-0.079002,0.048536,0.43106,0.074033,-0.12997,-0.10449,-0.20646,0.20157,-0.12996,-0.20649,0.074013,0.099534,0.12505,-0.078953,0.023047,0.074057,0.048549,-0.28301,-0.20649,-0.12996,-0.079002,0.50757,0.48209,0.12506,-0.027956,-0.078959,-0.25746,-0.20647,-0.15549,0.023029,-0.18097,-0.027956,0.12502,0.30354,0.50755,-0.15548,-0.12998,-0.10444,-0.20646,-0.002461,-0.20647,-0.18099,0.20153,0.45656,-0.20649,-0.10446,0.17607,0.074038,0.048549,-0.078947,-0.35948,0.12504,0.35455,-0.053488,0.023023,0.023041,-0.10447,-0.078984,-0.10446,0.048555,0.15054,0.023041,0.099534,0.0485,0.17606,0.048525,-0.002461,-0.30847,-0.33399,0.17605,0.25254,-0.181,-0.078972,-0.10449,0.074002,0.074044,-0.10449,-0.12995,-0.12994,-0.078941,0.074033,0.25254,0.15055,-0.002467,0.048531,-0.02798,0.074044,-0.38499,-0.25749,0.048543,0.15054,0.27805,0.15054,0.099552,-0.12996,-0.10448,-0.12999,0.15057,0.32909,-0.078935,-0.10447,-0.13,-0.18099,-0.078972,0.17605,0.099552,0.048518,0.15054,-0.12995,0.12505,-0.053488,-0.15548,-0.002479,0.17604,-0.078977,-0.053482,0.099552,0.048567,-0.28297,0.27805,0.22702,-0.35951,0.023054,0.023059,0.048536,-0.053495,-0.10446,0.023059,-0.12998,-0.027987,0.22704,0.12503,0.074051,0.15054,-0.20649,-0.23198,0.15054,0.048561,0.048555,-0.10445,-0.027969,-0.12998,-0.30848,0.20156,0.40555,0.099528,0.023023,-0.027962,-0.35947,-0.078959,0.074051,-0.053482,-0.053495,-0.10449,-0.078953,0.048525,0.074033,0.17606,-0.28297,0.023054,-0.15548,0.074033,0.25255,0.40557,-0.053458,-0.25749,-0.078966,-0.33399,0.074075,-0.053451,0.25255,0.40556,-0.12998,-0.002472,-0.10448,-0.078977,0.15055,-0.12995,0.048567,-0.18097,-0.232,0.17604,0.35454,0.20156,-0.12998,-0.12999,-0.12998,-0.23197,-0.20646,0.074044,0.20153,0.023023,-0.10447,0.074051,0.32906,0.099534,-0.12998,-0.027956,0.099534,-0.078966,-0.078972,-0.51248,0.048549,0.12504,0.12502,-0.053495,0.048531,0.12506,0.074062,-0.027956,-0.10449,-0.10446,-0.07899,0.12504,0.35458,0.099552,-0.078941,-0.078959,-0.35948,-0.078977,0.20153,0.53306,0.50757,-0.053451,-0.15547,-0.25748,-0.35949,-0.334,-0.078953,0.15054,0.20157,-0.1045,0.099521,0.09951,0.17605,-0.12998,0.074081,0.38011,-0.02798,-0.2575,-0.2065,-0.63999,0.048512,0.50756,0.30355,-0.33401,-0.64003,-0.002461,0.55858,0.30356,-0.28298,-0.027962,0.023041,-0.15549,0.048531,-0.181,-0.002479,-0.078947,-0.078935,0.30357,-0.20652,0.074038
