,0,1,2,3,4,5,6,7,8,9,10,11,12,13,14,15,16,17,18,19,20,21,22,23,24,25,26,27,28,29,30,31,32,33,34,35,36,37,38,39,40,41,42,43,44,45,46,47,48,49,50,51,52,53,54,55,56,57,58,59,60,61,62,63,64,65,66,67,68,69,70,71,72,73,74,75,76,77,78,79,80,81,82,83,84,85,86,87,88,89,90,91,92,93,94,95,96,97,98,99,100,101,102,103,104,105,106,107,108,109,110,111,112,113,114,115,116,117,118,119,120,121,122,123,124,125,126,127,128,129,130,131,132,133,134,135,136,137,138,139,140,141,142,143,144,145,146,147,148,149,150,151,152,153,154,155,156,157,158,159,160,161,162,163,164,165,166,167,168,169,170,171,172,173,174,175,176,177,178,179,180,181,182,183,184,185,186,187,188,189,190,191,192,193,194,195,196,197,198,199,200,201,202,203,204,205,206,207,208,209,210,211,212,213,214,215,216,217,218,219,220,221,222,223,224,225,226,227,228,229,230,231,232,233,234,235,236,237,238,239,240,241,242,243,244,245,246,247,248,249,250,251,252,253,254,255,256,257,258,259,260,261,262,263,264,265,266,267,268,269,270,271,272,273,274,275,276,277,278,279,280,281,282,283,284,285,286,287,288,289,290,291,292,293,294,295,296,297,298,299,300,301,302,303,304,305,306,307,308,309,310,311,312,313,314,315,316,317,318,319,320,321,322,323,324,325,326,327,328,329,330,331,332,333,334,335,336,337,338,339,340,341,342,343,344,345,346,347,348,349,350,351,352,353,354,355,356,357,358,359,360,361,362,363,364,365,366,367,368,369,370,371,372,373,374,375,376,377,378,379,380,381,382,383,384,385,386,387,388,389,390,391,392,393,394,395,396,397,398,399,400,401,402,403,404,405,406,407,408,409,410,411,412,413,414,415,416,417,418,419,420,421,422,423,424,425,426,427,428,429,430,431,432,433,434,435,436,437,438,439,440,441,442,443,444,445,446,447,448,449,450,451,452,453,454,455,456,457,458,459,460,461,462,463,464,465,466,467,468,469,470,471,472,473,474,475,476,477,478,479,480,481,482,483,484,485,486,487,488,489,490,491,492,493,494,495,496,497,498,499,500,501,502,503,504,505,506,507,508,509,510,511,512,513,514,515,516,517,518,519,520,521,522,523,524,525,526,527,528,529,530,531,532,533,534,535,536,537,538,539,540,541,542,543,544,545,546,547,548,549,550,551,552,553,554,555,556,557,558,559,560,561,562,563,564,565,566,567,568,569,570,571,572,573,574,575,576,577,578,579,580,581,582,583,584,585,586,587,588,589,590,591,592,593,594,595,596,597,598,599,600,601,602,603,604,605,606,607,608,609,610,611,612,613,614,615,616,617,618,619,620,621,622,623,624,625,626,627,628,629,630,631,632,633,634,635,636,637,638,639,640,641,642,643,644,645,646,647,648,649,650,651,652,653,654,655,656,657,658,659,660,661,662,663,664,665,666,667,668,669,670,671,672,673,674,675,676,677,678,679,680,681,682,683,684,685,686,687,688,689,690,691,692,693,694,695,696,697,698,699,700,701,702,703,704,705,706,707,708,709,710,711,712,713,714,715,716,717,718,719,720,721,722,723,724,725,726,727,728,729,730,731,732,733,734,735,736,737,738,739,740,741,742,743,744,745,746,747,748,749,750,751,752,753,754,755,756,757,758,759,760,761,762,763,764,765,766,767,768,769,770,771,772,773,774,775,776,777,778,779,780,781,782,783,784,785,786,787,788,789,790,791,792,793,794,795,796,797,798,799,800,801,802,803,804,805,806,807,808,809,810,811,812,813,814,815,816,817,818,819,820,821,822,823,824,825,826,827,828,829,830,831,832,833,834,835,836,837,838,839,840,841,842,843,844,845,846,847,848,849,850,851,852,853,854,855,856,857,858,859,860,861,862,863,864,865,866,867,868,869,870,871,872,873,874,875,876,877,878,879,880,881,882,883,884,885,886,887,888,889,890,891,892,893,894,895,896,897,898,899,900,901,902,903,904,905,906,907,908,909,910,911,912,913,914,915,916,917,918,919,920,921,922,923,924,925,926,927,928,929,930,931,932,933,934,935,936,937,938,939,940,941,942,943,944,945,946,947,948,949,950,951,952,953,954,955,956,957,958,959,960,961,962,963,964,965,966,967,968,969,970,971,972,973,974,975,976,977,978,979,980,981,982,983,984,985,986,987,988,989,990,991,992,993,994,995,996,997,998,999,1000,1001,1002,1003,1004,1005,1006,1007,1008,1009,1010,1011,1012,1013,1014,1015,1016,1017,1018,1019,1020,1021,1022,1023,1024,1025,1026,1027,1028,1029,1030,1031,1032,1033,1034,1035,1036,1037,1038,1039,1040,1041,1042,1043,1044,1045,1046,1047,1048,1049,1050,1051,1052,1053,1054,1055,1056,1057,1058,1059,1060,1061,1062,1063,1064,1065,1066,1067,1068,1069,1070,1071,1072,1073,1074,1075,1076,1077,1078,1079,1080,1081,1082,1083,1084,1085,1086,1087,1088,1089,1090,1091,1092,1093,1094,1095,1096,1097,1098,1099,1100,1101,1102,1103,1104,1105,1106,1107,1108,1109,1110,1111,1112,1113,1114,1115,1116,1117,1118,1119,1120,1121,1122,1123,1124,1125,1126,1127,1128,1129,1130,1131,1132,1133,1134,1135,1136,1137,1138,1139,1140,1141,1142,1143,1144,1145,1146,1147,1148,1149,1150,1151,1152,1153,1154,1155,1156,1157,1158,1159,1160,1161,1162,1163,1164,1165,1166,1167,1168,1169,1170,1171,1172,1173,1174,1175,1176,1177,1178,1179,1180,1181,1182,1183,1184,1185,1186,1187,1188,1189,1190,1191,1192,1193,1194,1195,1196,1197,1198,1199,1200,1201,1202,1203,1204,1205,1206,1207,1208,1209,1210,1211,1212,1213,1214,1215,1216,1217,1218,1219,1220,1221,1222,1223,1224,1225,1226,1227,1228,1229,1230,1231,1232,1233,1234,1235,1236,1237,1238,1239,1240,1241,1242,1243,1244,1245,1246,1247,1248,1249,1250,1251,1252,1253,1254,1255,1256,1257,1258,1259,1260,1261,1262,1263,1264,1265,1266,1267,1268,1269,1270,1271,1272,1273,1274,1275,1276,1277,1278,1279,1280,1281,1282,1283,1284,1285,1286,1287,1288,1289,1290,1291,1292,1293,1294,1295,1296,1297,1298,1299,1300,1301,1302,1303,1304,1305,1306,1307,1308,1309,1310,1311,1312,1313,1314,1315,1316,1317,1318,1319,1320,1321,1322,1323,1324,1325,1326,1327,1328,1329,1330,1331,1332,1333,1334,1335,1336,1337,1338,1339,1340,1341,1342,1343,1344,1345,1346,1347,1348,1349,1350,1351,1352,1353,1354,1355,1356,1357,1358,1359,1360,1361,1362,1363,1364,1365,1366,1367,1368,1369,1370,1371,1372,1373,1374,1375,1376,1377,1378,1379,1380,1381,1382,1383,1384,1385,1386,1387,1388,1389,1390,1391,1392,1393,1394,1395,1396,1397,1398,1399,1400,1401,1402,1403,1404,1405,1406,1407,1408,1409,1410,1411,1412,1413,1414,1415,1416,1417,1418,1419,1420,1421,1422,1423,1424,1425,1426,1427,1428,1429,1430,1431,1432,1433,1434,1435,1436,1437,1438,1439,1440,1441,1442,1443,1444,1445,1446,1447,1448,1449,1450,1451,1452,1453,1454,1455,1456,1457,1458,1459,1460,1461,1462,1463,1464,1465,1466,1467,1468,1469,1470,1471,1472,1473,1474,1475,1476,1477,1478,1479,1480,1481,1482,1483,1484,1485,1486,1487,1488,1489,1490,1491,1492,1493,1494,1495,1496,1497,1498,1499,1500,1501,1502,1503,1504,1505,1506,1507,1508,1509,1510,1511,1512,1513,1514,1515,1516,1517,1518,1519,1520,1521,1522,1523,1524,1525,1526,1527,1528,1529,1530,1531,1532,1533,1534,1535,1536,1537,1538,1539,1540,1541,1542,1543,1544,1545,1546,1547,1548,1549,1550,1551,1552,1553,1554,1555,1556,1557,1558,1559,1560,1561,1562,1563,1564,1565,1566,1567,1568,1569,1570,1571,1572,1573,1574,1575,1576,1577,1578,1579,1580,1581,1582,1583,1584,1585,1586,1587,1588,1589,1590,1591,1592,1593,1594,1595,1596,1597,1598,1599,1600,1601,1602,1603,1604,1605,1606,1607,1608,1609,1610,1611,1612,1613,1614,1615,1616,1617,1618,1619,1620,1621,1622,1623,1624,1625,1626,1627,1628,1629,1630,1631,1632,1633,1634,1635,1636,1637,1638,1639,1640,1641,1642,1643,1644,1645,1646,1647,1648,1649,1650,1651,1652,1653,1654,1655,1656,1657,1658,1659,1660,1661,1662,1663,1664,1665,1666,1667,1668,1669,1670,1671,1672,1673,1674,1675,1676,1677,1678,1679,1680,1681,1682,1683,1684,1685,1686,1687,1688,1689,1690,1691,1692,1693,1694,1695,1696,1697,1698,1699,1700,1701,1702,1703,1704,1705,1706,1707,1708,1709,1710,1711,1712,1713,1714,1715,1716,1717,1718,1719,1720,1721,1722,1723,1724,1725,1726,1727,1728,1729,1730,1731,1732,1733,1734,1735,1736,1737,1738,1739,1740,1741,1742,1743,1744,1745,1746,1747,1748,1749,1750,1751,1752,1753,1754,1755,1756,1757,1758,1759,1760,1761,1762,1763,1764,1765,1766,1767,1768,1769,1770,1771,1772,1773,1774,1775,1776,1777,1778,1779,1780,1781,1782,1783,1784,1785,1786,1787,1788,1789,1790,1791,1792,1793,1794,1795,1796,1797,1798,1799,1800,1801,1802,1803,1804,1805,1806,1807,1808,1809,1810,1811,1812,1813,1814,1815,1816,1817,1818,1819,1820,1821,1822,1823,1824,1825,1826,1827,1828,1829,1830,1831,1832,1833,1834,1835,1836,1837,1838,1839,1840,1841,1842,1843,1844,1845,1846,1847,1848,1849,1850,1851,1852,1853,1854,1855,1856,1857,1858,1859,1860,1861,1862,1863,1864,1865,1866,1867,1868,1869,1870,1871,1872,1873,1874,1875,1876,1877,1878,1879,1880,1881,1882,1883,1884,1885,1886,1887,1888,1889,1890,1891,1892,1893,1894,1895,1896,1897,1898,1899,1900,1901,1902,1903,1904,1905,1906,1907,1908,1909,1910,1911,1912,1913,1914,1915,1916,1917,1918,1919,1920,1921,1922,1923,1924,1925,1926,1927,1928,1929,1930,1931,1932,1933,1934,1935,1936,1937,1938,1939,1940,1941,1942,1943,1944,1945,1946,1947,1948,1949,1950,1951,1952,1953,1954,1955,1956,1957,1958,1959,1960,1961,1962,1963,1964,1965,1966,1967,1968,1969,1970,1971,1972,1973,1974,1975,1976,1977,1978,1979,1980,1981,1982,1983,1984,1985,1986,1987,1988,1989,1990,1991,1992,1993,1994,1995,1996,1997,1998,1999,2000,2001,2002,2003,2004,2005,2006,2007,2008,2009,2010,2011,2012,2013,2014,2015,2016,2017,2018,2019,2020,2021,2022,2023,2024,2025,2026,2027,2028,2029,2030,2031,2032,2033,2034,2035,2036,2037,2038,2039,2040,2041,2042,2043,2044,2045,2046,2047,2048,2049,2050,2051,2052,2053,2054,2055,2056,2057,2058,2059,2060,2061,2062,2063,2064,2065,2066,2067,2068,2069,2070,2071,2072,2073,2074,2075,2076,2077,2078,2079,2080,2081,2082,2083,2084,2085,2086,2087,2088,2089,2090,2091,2092,2093,2094,2095,2096,2097,2098,2099,2100,2101,2102,2103,2104,2105,2106,2107,2108,2109,2110,2111,2112,2113,2114,2115,2116,2117,2118,2119,2120,2121,2122,2123,2124,2125,2126,2127,2128,2129,2130,2131,2132,2133,2134,2135,2136,2137,2138,2139,2140,2141,2142,2143,2144,2145,2146,2147,2148,2149,2150,2151,2152,2153,2154,2155,2156,2157,2158,2159,2160,2161,2162,2163,2164,2165,2166,2167,2168,2169,2170,2171,2172,2173,2174,2175,2176,2177,2178,2179,2180,2181,2182,2183,2184,2185,2186,2187,2188,2189,2190,2191,2192,2193,2194,2195,2196,2197,2198,2199,2200,2201,2202,2203,2204,2205,2206,2207,2208,2209,2210,2211,2212,2213,2214,2215,2216,2217,2218,2219,2220,2221,2222,2223,2224,2225,2226,2227,2228,2229,2230,2231,2232,2233,2234,2235,2236,2237,2238,2239,2240,2241,2242,2243,2244,2245,2246,2247,2248,2249,2250,2251,2252,2253,2254,2255,2256,2257,2258,2259,2260,2261,2262,2263,2264,2265,2266,2267,2268,2269,2270,2271,2272,2273,2274,2275,2276,2277,2278,2279,2280,2281,2282,2283,2284,2285,2286,2287,2288,2289,2290,2291,2292,2293,2294,2295,2296,2297,2298,2299,2300,2301,2302,2303,2304,2305,2306,2307,2308,2309,2310,2311,2312,2313,2314,2315,2316,2317,2318,2319,2320,2321,2322,2323,2324,2325,2326,2327,2328,2329,2330,2331,2332,2333,2334,2335,2336,2337,2338,2339,2340,2341,2342,2343,2344,2345,2346,2347,2348,2349,2350,2351,2352,2353,2354,2355,2356,2357,2358,2359,2360,2361,2362,2363,2364,2365,2366,2367,2368,2369,2370,2371,2372,2373,2374,2375,2376,2377,2378,2379,2380,2381,2382,2383,2384,2385,2386,2387,2388,2389,2390,2391,2392,2393,2394,2395,2396,2397,2398,2399,2400,2401,2402,2403,2404,2405,2406,2407,2408,2409,2410,2411,2412,2413,2414,2415,2416,2417,2418,2419,2420,2421,2422,2423,2424,2425,2426,2427,2428,2429,2430,2431,2432,2433,2434,2435,2436,2437,2438,2439,2440,2441,2442,2443,2444,2445,2446,2447,2448,2449,2450,2451,2452,2453,2454,2455,2456,2457,2458,2459,2460,2461,2462,2463,2464,2465,2466,2467,2468,2469,2470,2471,2472,2473,2474,2475,2476,2477,2478,2479,2480,2481,2482,2483,2484,2485,2486,2487,2488,2489,2490,2491,2492,2493,2494,2495,2496,2497,2498,2499,2500,2501,2502,2503,2504,2505,2506,2507,2508,2509,2510,2511,2512,2513,2514,2515,2516,2517,2518,2519,2520,2521,2522,2523,2524,2525,2526,2527,2528,2529,2530,2531,2532,2533,2534,2535,2536,2537,2538,2539,2540,2541,2542,2543,2544,2545,2546,2547,2548,2549,2550,2551,2552,2553,2554,2555,2556,2557,2558,2559,2560,2561,2562,2563,2564,2565,2566,2567,2568,2569,2570,2571,2572,2573,2574,2575,2576,2577,2578,2579,2580,2581,2582,2583,2584,2585,2586,2587,2588,2589,2590,2591,2592,2593,2594,2595,2596,2597,2598,2599,2600,2601,2602,2603,2604,2605,2606,2607,2608,2609,2610,2611,2612,2613,2614,2615,2616,2617,2618,2619,2620,2621,2622,2623,2624,2625,2626,2627,2628,2629,2630,2631,2632,2633,2634,2635,2636,2637,2638,2639,2640,2641,2642,2643,2644,2645,2646,2647,2648,2649,2650,2651,2652,2653,2654,2655,2656,2657,2658,2659,2660,2661,2662,2663,2664,2665,2666,2667,2668,2669,2670,2671,2672,2673,2674,2675,2676,2677,2678,2679,2680,2681,2682,2683,2684,2685,2686,2687,2688,2689,2690,2691,2692,2693,2694,2695,2696,2697,2698,2699,2700,2701,2702,2703,2704,2705,2706,2707,2708,2709,2710,2711,2712,2713,2714,2715,2716,2717,2718,2719,2720,2721,2722,2723,2724,2725,2726,2727,2728,2729,2730,2731,2732,2733,2734,2735,2736,2737,2738,2739,2740,2741,2742,2743,2744,2745,2746,2747,2748,2749,2750,2751,2752,2753,2754,2755,2756,2757,2758,2759,2760,2761,2762,2763,2764,2765,2766,2767,2768,2769,2770,2771,2772,2773,2774,2775,2776,2777,2778,2779,2780,2781,2782,2783,2784,2785,2786,2787,2788,2789,2790,2791,2792,2793,2794,2795,2796,2797,2798,2799,2800,2801,2802,2803,2804,2805,2806,2807,2808,2809,2810,2811,2812,2813,2814,2815,2816,2817,2818,2819,2820,2821,2822,2823,2824,2825,2826,2827,2828,2829,2830,2831,2832,2833,2834,2835,2836,2837,2838,2839,2840,2841,2842,2843,2844,2845,2846,2847,2848,2849,2850,2851,2852,2853,2854,2855,2856,2857,2858,2859,2860,2861,2862,2863,2864,2865,2866,2867,2868,2869,2870,2871,2872,2873,2874,2875,2876,2877,2878,2879,2880,2881,2882,2883,2884,2885,2886,2887,2888,2889,2890,2891,2892,2893,2894,2895,2896,2897,2898,2899,2900,2901,2902,2903,2904,2905,2906,2907,2908,2909,2910,2911,2912,2913,2914,2915,2916,2917,2918,2919,2920,2921,2922,2923,2924,2925,2926,2927,2928,2929,2930,2931,2932,2933,2934,2935,2936,2937,2938,2939,2940,2941,2942,2943,2944,2945,2946,2947,2948,2949,2950,2951,2952,2953,2954,2955,2956,2957,2958,2959,2960,2961,2962,2963,2964,2965,2966,2967,2968,2969,2970,2971,2972,2973,2974,2975,2976,2977,2978,2979,2980,2981,2982,2983,2984,2985,2986,2987,2988,2989,2990,2991,2992,2993,2994,2995,2996,2997,2998,2999
0,0.12499,-0.10459,-0.13009,-0.30853,0.023065,0.099619,0.17612,-0.027944,0.12508,0.20158,0.15055,-0.002454,-0.12999,-0.002472,-0.12996,-0.10443,0.17607,0.12502,-0.15549,-0.28304,0.099515,0.1505,0.074038,0.023065,-0.078935,-0.15544,-0.18103,-0.053525,0.048518,-0.23199,0.1251,0.17607,0.27809,0.048549,-0.10452,-0.18097,-0.027938,0.43114,-0.15545,0.22704,0.099515,0.25252,-0.027969,-0.18097,-0.35949,-0.23196,-0.078972,-0.38503,0.15055,0.53306,0.02301,0.17602,0.074013,0.074051,-0.15541,-0.12996,-0.25748,-0.053446,-0.078947,0.17602,0.68606,0.27805,-0.05347,-0.41051,-0.41048,-0.15543,-0.18097,-0.15553,-0.15551,0.27803,0.07402,0.099521,0.27806,-0.027938,-0.10447,0.17606,0.048549,-0.28292,-0.12998,0.048555,0.27802,-0.053513,0.35456,0.22702,-0.35951,-0.33391,-0.078923,-0.10445,0.02301,-0.20652,-0.002521,0.12504,0.2015,0.22704,-0.63995,-0.53795,-0.20645,0.32908,0.58409,0.27803,0.17601,0.12496,0.099534,0.099552,-0.20649,-0.12998,-0.33399,-0.334,-0.23192,0.32911,0.12508,0.20155,0.099534,-0.20651,-0.38503,-0.33397,0.048592,0.20159,0.099503,0.048482,0.25249,0.25252,-0.69101,-0.4615,0.074111,0.58409,0.50755,0.32903,-0.20643,-0.30847,-0.28303,-0.10449,0.048531,-0.3085,-0.30847,-0.002418,0.15057,0.12504,0.27803,0.25252,0.30351,0.35455,-0.002405,-0.48694,-0.46149,-0.35951,0.023017,-0.15551,-0.053513,0.20156,0.35456,0.25255,-0.002491,-0.10445,-0.33394,-0.027944,-0.053451,0.15054,0.023017,-0.027944,0.074013,0.2015,-0.078977,-0.12999,-0.10444,-0.10447,0.099534,0.17608,-0.10446,-0.053476,0.048561,0.074069,-0.15546,-0.0535,-0.33407,-0.41055,-0.053488,0.2271,0.2271,0.17607,-0.13001,0.7371,0.35455,0.074026,-0.69104,-0.742,0.17617,0.023023,0.43101,0.15051,-0.38505,-0.56355,-0.23196,0.45656,0.40562,0.15057,-0.15546,-0.43598,-0.053482,0.22704,0.30352,-0.20652,-0.23196,-0.10445,-0.10444,0.023059,-0.053464,0.50767,-0.18102,-0.02798,0.17603,-0.15555,-0.2065,-0.18098,-0.28298,0.023078,0.12507,-0.02795,-0.053488,-0.18103,-0.002516,0.30355,0.30358,0.023047,-0.18093,-0.28297,-0.18095,-0.053488,0.074051,0.048512,0.15056,0.048536,0.048531,0.074069,-0.053482,-0.15546,-0.027969,-0.18099,-0.002467,0.12505,0.22706,0.2525,0.048525,-0.05347,-0.28294,-0.078941,-0.078966,-0.46151,0.022956,0.43106,0.12505,-0.25755,-0.10449,0.023103,-0.027895,-0.3085,-0.18103,-0.079026,0.15054,0.27806,0.27808,0.22706,0.023041,-0.053439,-0.53795,-0.10444,0.30355,-0.38502,-0.33401,0.073989,0.32903,0.58406,0.50755,-0.002418,-0.28296,-0.20644,-0.23191,-0.64005,-1.2011,-0.027969,0.43101,1.2981,0.76255,-0.15551,-0.23197,0.40574,0.099588,-0.18102,-0.10452,0.023035,-0.33398,0.12499,0.60953,0.12512,-0.94597,-0.66551,-0.18098,0.074013,0.58419,0.12501,0.63505,0.38006,-1.1501,0.43113,0.35456,-0.97157,0.04858,1.0175,1.1961,-0.283,-1.2776,-0.92057,0.38003,0.15048,0.38013,0.099608,-0.18092,0.27805,0.20155,-0.84403,-0.13,0.17603,1.2982,0.58414,-1.0481,0.43106,0.35453,0.22698,-1.5071,-0.30835,-0.56345,0.78801,1.0429,1.4256,1.5532,-1.9915,-3.4958,-0.25735,2.3693,1.451,0.099412,-0.58916,-1.1758,0.32896,1.5024,-1.7364,-0.6401,0.25243,1.3748,2.5479,1.0174,-0.79282,-6.5055,-1.5326,2.3184,0.40551,1.3235,1.0176,-2.6801,0.8901,0.22725,1.2216,0.96639,1.1707,-0.99697,-2.5272,-2.1447,-0.74214,2.8029,-0.69114,1.7827,2.9559,-0.25737,-0.4102,-1.4305,0.1504,0.073782,-1.9407,-1.5581,-1.3032,0.048678,2.4201,2.8027,-0.13001,-0.5633,0.074209,0.43119,-0.1554,-0.35962,1.1195,0.48192,1.0941,-1.5836,-3.8532,1.9104,1.8848,0.22722,-2.0683,2.0633,-0.76752,-1.7875,-1.201,1.1961,2.3438,-0.43613,-1.5327,1.1961,2.6752,0.2271,-5.1793,0.91545,0.9663,3.8486,-0.63991,-1.7875,-0.002296,-1.0736,-1.8132,1.2726,-0.56352,-0.81865,0.53286,0.71143,1.1196,-0.053427,-0.078923,1.5279,1.7574,-1.2009,-6.0718,-1.8641,3.3893,2.7517,-1.6347,-1.4052,-0.13009,1.3238,2.2418,0.37999,-0.69099,-1.9152,-0.13002,0.48205,-0.1045,0.43121,1.3747,0.43126,-3.2157,-2.9862,0.53296,1.706,1.5786,1.2727,2.0887,1.1195,-4.6694,-3.2157,0.43099,0.074002,0.89036,-0.46145,2.1397,-0.86953,-1.3795,1.8847,0.81362,-0.10456,1.6296,0.86451,-0.86941,-5.2303,0.07402,1.5531,0.25254,1.1196,1.3235,1.9613,-5.5617,-0.86929,0.48212,1.043,1.7059,0.60937,-1.3795,0.43118,0.15071,0.89019,0.37988,-1.0226,0.15059,-0.79295,-2.17,-0.53791,1.8592,2.2926,1.8081,-0.94619,-1.8895,-3.4709,2.5479,0.38008,-0.76761,2.0377,1.9867,-1.915,-0.38481,0.71174,-0.46149,1.5273,-0.66545,-2.6036,0.7624,-1.0226,-1.2776,0.73747,0.76271,1.4,0.45638,-0.28303,1.1962,-0.30843,0.81345,0.78828,-1.0224,0.35445,0.6605,-3.7257,-2.9352,-0.48696,-1.3796,2.0377,2.7772,2.369,1.8339,-0.81832,-0.5634,0.55854,-2.5274,-2.1448,0.48227,0.48199,1.6297,1.91,0.04842,-3.7002,-1.813,1.1961,-1.2521,-0.51227,2.0377,1.5531,0.76257,1.4765,-1.201,-1.864,-0.002381,1.4512,-0.15553,-1.2521,-1.8896,-0.43621,3.3891,-0.30841,-0.84391,1.5786,-1.6853,1.2726,0.17607,-0.71658,1.5276,-0.18107,0.3801,0.20172,-0.84403,-0.66555,1.2215,0.6352,0.68622,-2.7822,-1.4304,1.7315,0.96643,-0.079093,-0.28303,0.27824,-0.18119,0.38009,1.1963,0.73711,-2.119,-0.18093,-0.69103,-0.33411,1.094,0.45652,0.099479,-0.18089,-0.56354,1.7826,0.27811,-3.7511,-1.609,2.0632,1.9867,-0.25755,0.022901,-0.13024,0.023108,0.22711,0.30354,-0.9715,0.9921,0.7628,-4.6694,-1.864,1.7316,1.8591,1.6805,-0.66549,-2.3995,2.4202,0.55859,0.99208,-0.71647,-1.7621,-1.1755,0.68616,0.88999,0.4821,0.30354,1.1961,0.07402,-1.0735,-0.81848,-0.9206,-1.7877,0.55876,0.68603,-0.18104,0.27808,0.38006,1.7317,0.30357,-0.74187,-1.3541,1.8082,1.5274,-1.7366,-1.762,-0.25729,0.17625,-0.33412,1.1448,1.3744,1.349,-0.20643,-1.4305,2.8794,0.81357,-8.0609,-0.8695,1.4256,3.1853,0.91556,1.1706,-0.4615,-0.43607,1.8847,-1.8641,1.5021,-2.3486,-2.0426,-0.35946,0.99218,2.0123,0.81362,0.32899,-1.6601,-0.66544,1.6554,-0.078984,-0.7931,1.9101,0.50752,-4.0829,-1.4562,2.4712,0.99212,-0.89482,-0.94598,2.0121,2.8282,-2.5527,-1.15,1.0176,-0.81854,-0.23196,2.0633,1.0175,-2.0171,-0.86953,0.40547,0.4821,0.048567,0.023029,0.48206,0.58418,-0.053446,-2.8332,-0.86942,1.196,3.1598,-0.84406,-2.5017,-0.078947,0.83906,-0.84397,0.60957,1.1962,2.2163,-0.12988,2.8539,0.78801,-3.5217,-3.2667,-0.97157,-0.38505,0.68602,1.5786,-1.0224,-0.18101,2.2417,-1.7876,-3.5216,-0.027889,1.6807,2.5732,1.2216,-0.81867,-1.0735,-0.33427,-0.1045,0.83905,-0.53803,-1.7366,-0.99709,1.1198,0.60955,-0.53792,-2.7821,-0.56345,1.4257,0.81356,1.7827,0.073868,0.3035,-0.002485,-2.0681,0.023084,1.6552,0.35451,0.12497,-0.28303,0.40555,-1.8896,-2.323,0.27814,-0.35947,0.78808,3.1343,-0.79298,-1.9662,-0.71651,0.91552,0.27798,2.0123,1.4001,-0.41046,-0.25744,-0.46167,-1.8896,-2.1447,0.12514,-0.027871,1.0942,0.17598,1.4257,-0.38519,-0.13,-0.58906,-1.9151,0.48208,0.89007,0.55852,0.073989,-0.35953,1.1707,-0.94606,-0.002314,0.96668,-0.25754,-0.74213,-0.10445,-1.2013,-0.35947,0.32916,0.60963,-0.99697,-0.64,0.63503,0.78799,0.68622,0.55852,1.1196,0.25255,-0.66551,0.45675,0.22694,0.12508,1.2473,-1.7621,-2.7058,-1.4817,2.7009,0.6608,0.023114,0.63502,0.20142,-2.1448,-1.15,-2.9862,1.2218,2.1907,1.7062,0.58407,1.2216,1.1196,-1.4304,0.15057,0.22706,-2.6548,0.25242,0.50756,-0.078966,0.71162,-1.7619,-2.8076,1.0431,1.3491,-0.8695,0.81367,0.68612,0.38004,0.12474,0.15054,0.96674,0.99219,0.66059,-1.2774,-1.0227,0.96654,-0.58906,-1.8386,-0.61435,1.4512,-1.4051,-1.0479,0.30342,1.3236,2.2928,2.1398,-0.53817,-1.3796,-0.56348,0.40557,3.9249,-1.6344,-3.7511,-1.1756,-1.1246,2.1396,2.5477,1.2982,-0.53782,-1.2267,-0.18094,-0.13009,1.3491,0.073977,-1.9406,-1.9405,0.89007,1.7062,1.8082,-0.25746,-0.18089,1.0687,-0.12994,-1.7621,-1.7112,2.1397,0.86462,-1.9661,-1.9661,-0.25737,2.2926,0.35445,-0.53802,-0.41055,0.68612,-0.028042,1.2217,0.96655,-0.51247,0.91578,1.196,-0.51249,-2.8841,0.76263,0.48216,-0.027998,0.38001,-1.201,-1.0989,0.22695,1.8592,-0.23215,-2.1702,-2.0426,2.3948,1.5532,1.4511,1.5532,-0.02798,-3.3433,-0.35943,-1.456,0.58406,0.78814,2.3692,-0.002369,-2.2721,0.2015,0.022961,-0.81851,0.048604,1.4767,-1.762,0.91557,-0.5124,0.22697,1.4258,-0.13007,0.2015,-0.66562,-1.0736,-0.28295,1.3491,0.99204,-2.986,-0.38497,0.8901,0.7628,-0.23201,0.17602,1.1705,1.0432,1.1705,-0.15542,-3.1137,-0.23197,0.55854,1.0175,0.635,0.25257,-1.8385,-1.3794,0.3801,1.2473,0.35429,0.96649,-0.28309,0.7116,1.1708,-0.66543,-2.2975,-1.2011,-0.30852,1.2726,1.1196,0.71155,0.99205,-0.20638,-2.5527,-0.25754,1.2725,1.9868,-4.5673,-1.507,3.5426,1.7061,1.4257,1.0176,-0.844,0.53327,-1.66,-2.2213,-0.58922,-0.3084,-1.4562,1.0685,0.99205,0.074136,0.91553,0.68599,-1.1755,-1.0735,0.43116,1.2471,1.2472,-0.027858,-1.3795,0.68617,-0.053476,0.17595,-0.18109,0.66063,-0.79306,-0.20648,1.298,-1.4817,-3.9552,1.0685,-0.48689,1.7827,1.4257,0.37997,0.68594,-0.46159,0.99206,0.099717,-0.9205,-0.053317,0.25252,-0.002454,-0.23191,1.0176,0.482,0.30357,-2.0172,-3.5727,0.53306,1.7571,1.7827,0.71161,-1.456,-0.38488,1.8592,0.6605,-0.43595,-1.15,0.66055,0.22699,0.7371,0.35452,-2.8078,-1.252,0.15052,0.99223,0.94111,1.3237,-0.63996,-0.79305,0.27803,-0.48713,-0.33406,-0.30853,-0.30875,1.4259,1.2473,0.32907,-0.6143,-1.2521,0.86461,-0.002479,-1.6347,0.55852,-0.43604,-0.053513,0.6096,0.099601,0.48213,-0.25746,-0.25741,-0.07899,-1.6856,0.35458,0.66068,0.30353,1.1705,1.4767,-1.3796,-1.6092,-1.3031,-0.002356,0.60955,0.99205,0.91556,0.32903,-0.436,-0.51249,0.12516,-0.20648,0.30342,0.96653,-0.81834,-1.8384,-0.078984,-0.89506,1.1962,-0.43621,-0.028158,0.63503,0.66056,1.2472,-0.20645,-2.4507,0.20158,1.7316,-0.38506,-0.66547,-0.71644,0.22714,1.9357,-0.078996,-1.2264,-0.99706,-0.10458,0.074002,-0.6656,0.76269,0.71158,0.6606,0.12503,-0.053458,-0.33396,-0.38502,-0.48706,1.1454,-0.3341,-0.15561,-0.053562,1.2982,0.83906,-1.8896,-3.4452,-1.15,0.66065,3.0324,2.0122,0.023072,-1.2011,-0.25756,1.2725,-0.53805,-0.64002,-1.0736,0.91562,-0.23193,-1.0735,0.6606,-0.28288,-1.0226,-0.18107,0.53316,-0.35956,0.68599,0.9155,0.12496,0.66082,-0.20638,-0.30851,-0.10444,-1.0992,-0.41055,0.073953,0.30355,-0.07877,-0.99701,1.1707,1.7825,-2.8077,-0.46145,0.96655,-0.99715,1.1964,0.63538,-0.58909,1.0685,-1.6857,-2.2212,1.1706,2.9046,-0.10452,-1.1245,-0.997,-0.53793,0.60962,-0.10446,-0.18096,0.227,0.63509,0.78823,-0.79307,0.63512,-0.6145,-0.35953,0.12497,-1.2522,-0.742,0.9412,0.63503,-0.66554,0.1505,0.73698,1.6555,-1.6092,0.48225,-0.94598,0.12506,-0.13002,0.81351,0.53302,1.4257,-0.58905,-1.9917,-0.69111,1.9102,-0.10435,-0.71643,0.86462,-0.38501,-2.0681,1.247,0.048482,-0.76755,-0.18089,0.50751,1.2472,-1.1246,0.278,0.63513,-0.28303,0.55858,0.15074,-0.58896,-0.53802,-1.2777,-0.13,0.45661,0.60957,0.074002,0.58398,1.5532,-0.48692,-0.92049,-0.81849,-0.84402,-0.20644,0.17607,1.3746,0.17592,0.30359,1.2725,-1.558,-1.6855,-0.12995,0.50752,1.1706,-0.28308,-0.078953,0.048536,0.55872,0.73715,0.73714,-0.48704,-0.71654,-0.92057,-0.53803,0.43098,0.35451,-0.94602,0.58408,-0.58898,-0.76744,1.2472,1.0941,-0.66549,-0.53809,1.5276,0.91543,-1.711,-1.8385,0.55862,1.043,0.91568,0.0485,0.1506,-1.5071,0.048592,-0.48699,0.074008,0.17597,-0.38508,1.7828,0.27805,-0.18085,-0.46159,-0.43605,-0.13001,0.3547,0.53313,-1.5836,-0.20656,0.12507,-0.20652,0.32907,0.78807,1.0176,0.78818,-2.8077,-2.1701,1.5532,1.094,0.27798,0.6861,0.22713,0.81362,-0.12993,-1.4816,-1.8641,-0.33385,0.27795,0.99221,0.30356,0.073953,0.074008,0.71162,-0.64007,-1.0989,0.68616,1.298,1.0175,-1.7876,-0.74197,0.81373,0.38,0.68615,-0.33401,-2.7056,-0.84401,0.78794,2.3436,-0.23193,-0.92045,-0.35948,0.32904,0.94115,0.89014,-0.66555,-0.92057,-0.28304,-0.53805,-0.8184,0.55859,0.20149,0.7626,0.96674,-0.25748,-1.0481,0.76248,0.22695,0.20147,-0.027871,-0.61443,0.32907,0.38018,-1.456,-0.99697,-0.002595,0.30349,0.50749,1.5531,1.0177,0.074013,-0.002412,-1.5326,0.45653,-0.20655,-2.5783,0.55868,-0.18105,0.15052,0.8137,0.58415,0.048598,0.55866,-0.56359,0.58405,0.17592,-1.1499,1.1451,0.22711,0.53293,0.78813,-0.92051,-0.33379,0.15059,-0.02795,-0.002552,0.58402,0.76269,-0.12995,0.35465,-0.76752,-2.0937,-0.28308,0.91557,0.30354,0.94115,1.9611,-2.2467,-3.2158,0.50754,0.58395,1.8849,0.4566,0.17609,0.30358,-0.13002,-0.76748,-0.027956,0.48223,-0.76774,0.68622,-0.51265,-0.12996,0.022986,0.023078,0.22706,0.32904,0.048391,-0.35954,-1.1246,1.1707,0.94131,-1.3795,0.023029,0.2015,0.43116,1.6805,-2.7566,-1.099,0.3546,1.0431,0.94106,0.27798,0.45659,-0.05347,-1.9151,-0.25751,0.40553,0.86462,0.66062,-0.18097,-0.43596,-0.33397,-0.12995,-0.12994,-0.30854,-0.35953,0.73713,0.45651,0.73715,-0.51256,-0.7166,-0.23193,0.63515,0.86461,-0.38494,0.35456,-0.99706,-0.61457,0.73723,0.45648,-0.53801,-0.46148,0.66067,0.63517,0.074026,0.048433,0.43101,-0.15553,-0.76757,-0.053446,-0.28288,0.17611,0.40566,1.1707,-1.405,-0.002479,0.22704,-0.81857,0.50753,-0.2321,1.2217,0.83901,0.15054,-1.2265,1.2725,0.074075,-1.8641,0.48203,-0.74194,-0.027895,-0.10443,0.48206,0.12497,-0.18086,-0.25742,0.78791,0.78811,-0.92058,0.30358,-0.66551,-0.844,0.023059,0.022913,0.43111,0.60965,0.073922,-0.35954,0.94104,0.17607,-0.18095,-0.94601,-0.4358,-0.74198,-0.64006,0.32904,1.0686,1.0686,-0.28308,-1.5325,1.2727,-0.002503,0.12505,0.4056,-0.027998,0.17598,-0.002443,-1.7366,0.20158,1.0941,0.27797,-1.1244,-1.5835,0.96668,0.99219,1.0175,0.22701,-1.7878,0.25257,1.0432,0.20179,-1.7622,-0.0535,0.50763,0.20162,1.3236,0.48201,0.1759,0.04861,-1.0991,1.0942,0.89032,-2.2212,-0.53796,0.022986,0.58402,0.43089,0.38015,-0.48691,0.25253,1.2471,0.09957,-0.69101,-0.99704,0.35458,0.71164,0.78816,-0.30856,-0.20655,-1.1246,0.94129,-0.33408,-1.2012,0.099552,0.27802,1.4258,1.0432,-1.2267,-1.5581,-0.35959,1.0686,0.38014,0.89016,-0.61438,-0.89494,-1.4817,-0.18103,2.9047,-0.79304,-0.64001,0.50754,0.074038,0.0741,0.27806,-0.053427,-0.30846,0.20153,2.0888,-1.8642,-3.1901,0.30358,0.71146,0.839,0.63503,0.58409,0.76264,-0.181,-0.18099,-0.25742,-0.51249,-0.20644,0.73704,-1.0481,-2.3486,1.5788,1.7571,-1.3285,0.68606,1.0175,0.099479,-1.7621,-0.15555,0.22701,0.099613,0.35455,-1.0991,0.32905,-0.86958,0.3545,1.7572,-0.8439,-1.2264,0.30363,0.73706,0.45654,0.584,0.55854,-0.71659,-1.048,-0.2575,0.50752,-0.61446,-0.10443,0.32904,0.71161,-1.099,-0.76752,0.048451,1.8847,-0.35945,-2.7057,0.83921,0.89011,0.8901,1.5022,-0.58915,-1.8388,-0.10423,0.91573,0.15061,0.048567,0.099406,-0.28303,-2.1192,1.2726,0.48208,0.58414,-0.30848,-1.0736,0.15056,0.86453,-0.079021,-1.1243,-0.10449,0.45657,0.9921,0.35453,-0.25752,1.2982,0.68611,-2.2466,-1.66,-0.027993,0.1506,-0.89516,1.298,1.4256,1.1452,-1.7621,-0.35953,1.2982,-0.86954,-0.79291,0.7626,0.048585,-1.6346,0.71158,1.0941,0.27809,0.40558,0.30364,0.81357,-0.66562,-2.4761,-0.15537,0.43107,0.53298,0.12505,-0.4361,0.50749,0.45647,0.60979,-0.20639,-0.63996,-0.25749,0.35453,0.66054,-0.46155,-0.33398,0.63516,-0.30841,-1.8642,1.7317,-0.002479,-0.64008,1.1707,1.2216,0.074062,-1.3541,0.25257,0.09957,0.66061,0.60965,-0.895,-0.33408,0.074002,-1.1245,-1.5327,1.5022,-0.002461,-1.6091,0.50755,1.2217,0.73709,0.81367,-0.33404,0.45653,-1.0991,-1.1245,0.099608,0.38011,0.15056,-0.4871,-0.53798,0.78813,0.78803,1.0686,0.12502,-0.99706,-2.4506,0.40557,-0.46143,0.68616,0.25256,-1.1246,-0.99712,1.4001,1.2982,1.1963,0.048487,0.27803,-0.81859,-0.86949,0.074044,0.35451,0.27814,-0.05358,-0.15549,-0.027773,-0.38511,-0.002497,-1.048,0.074173,0.15056,0.15048,-0.56358,0.45653,0.58405,0.686,0.58408,-1.099,-0.30843,-0.66543,0.60969,-0.79311,1.1963,0.48194,0.3291,-0.13003,-0.58908,-0.58905,0.099564,0.048598,-0.38495,0.30364,0.45658,0.86463,-0.05358,-0.56361,-0.76755,-0.078972,-0.18097,0.53318,0.53311,-0.002546,0.048458,0.58419,-0.61452,-0.7931,-1.0736,0.96663,1.4258,-1.7621,-1.048,1.1706,-0.002497,1.0176,0.45654,-0.33396,-0.89513,0.048476,-0.46151,0.8392,0.4056,-1.4559,-0.00243,0.96653,0.25242,-0.69102,-0.3339,1.9102,0.35459,-0.5635,-1.4816,-0.74211,0.43101,0.86456,0.83912,0.25259,-0.56357,-0.35948,0.04861,-0.35949,-0.053464,1.0431,-0.12988,-0.51253,-0.30853,-0.69103,-0.1555,0.023041,0.023029,0.073953,0.58407,0.91588,-1.0993,0.96659,-0.48699,-1.7621,1.3492,1.9866,-0.10455,-1.66,-0.79313,1.0687,1.5022,0.66058,-0.84405,-2.3232,-1.0736,-0.027962,0.43104,1.6807,0.55858,-0.69089,0.2526,1.3236,0.099485,-0.25751,-0.89502,-0.38495,-1.3795,0.58396,1.1961,0.32898,-0.20651,-1.405,-0.43591,0.073971,0.91565,1.1706,-1.3285,0.15059,0.60955,0.2015,0.86478,0.35456,-0.81858,-0.38504,-0.13007,0.58402,-0.33393,-0.81848,-0.38492,0.5586,0.45661,0.78812,-1.2776,-0.46151,0.55859,-0.15545,0.58408,0.55859,-0.283,0.35462,-0.05347,-1.2522,-0.92063,2.1397,0.66066,-1.8385,-1.2011,0.37998,0.48219,0.66061,-0.002448,-0.25756,1.4001,-0.053495,-1.1501,-0.10454,-0.078996,-0.10435,-0.28309,1.4002,0.22705,-0.46131,0.32908,-0.69102,-0.48706,-0.94606,-2.1446,1.2471,1.0687,0.58408,1.3748,1.2471,0.86463,-0.74206,-3.0373,-0.53795,0.45645,0.99207,-0.38506,-0.79294,-0.43592,0.584,0.20153,0.30356,1.1961,0.12509,-1.3796,-0.25746,-0.51244,0.1505,0.32903,-0.12995,0.94109,0.022937,-0.61449,-0.38486,1.0175,1.0431,-1.6855,-1.3541,-0.28301,0.40555,0.27807,0.76266,0.60963,-0.053586,0.17603,-0.66551,-0.63996,0.63512,0.15057,-0.74204,0.83903,-0.25749,-1.0481,-0.28295,1.8592,-0.28294,-1.0479,0.04842,0.81351,0.53301,0.38006,0.68615,-0.23201,-0.23198,1.0177,-1.7111,-3.3176,-0.13007,1.2471,0.45653,1.5787,0.45656,0.30363,-0.30854,0.86465,-0.18101,-0.86953,-0.18101,-0.53798,-0.23196,0.94111,0.55859,-0.35959,-1.4561,-1.3796,0.43115,0.53307,0.89018,0.99213,-0.2575,-0.81863,-0.25753,0.60955,0.4822,-0.43586,0.12505,-0.56357,-0.56359,0.278,0.0485,0.50757,0.17614,-0.027944,0.15049,-1.4306,-0.3085,0.074044,0.71163,0.35458,0.96664,-0.46143,-1.3287,0.40557,0.50752,-0.35952,-0.10447,0.48205,-0.10446,-0.28303,0.43108,0.022883,-0.38502,-0.92048,-0.053519,0.76265,0.38014,0.17602,-1.8896,-1.1755,0.022992,1.1961,1.1706,-1.4561,1.2727,1.5021,0.40562,-0.81859,-0.18101,0.074013,-0.00243,-0.25741,-0.25746,1.2472,-1.201,-0.46152,0.68604,-0.15551,-1.099,-0.58902,1.4001,1.3493,0.58404,0.32903,-0.946,-0.51244,-0.38505,-0.028054,0.78808,0.32905,-0.84405,-1.9151,-0.25757,1.2218,0.55866,0.27817,0.32918,-0.64006,1.0431,-0.7932,1.2983,0.45648,0.04858,-0.6145,0.048592,0.25262,-0.53798,-0.76755,-0.18103,-0.079075,-0.76762,-0.38503,1.2981,0.96658,-0.48691,-0.69093,-0.58888,0.17607,0.76264,0.86464,0.30355,-0.94598,0.482,0.30353,0.12494,0.27815,-0.30848,-1.2011,-0.66547,-0.028005,0.20148,0.30346,0.35455,0.43113,0.60974,-0.4615,-0.18094,-0.10444,-0.15563,0.30363,-0.51252,0.43102,1.0941,-1.5326,-1.7875,1.3746,-0.76752,-0.15543,1.0176,0.94102,0.48203,0.55862,-0.64011,-0.71648,0.17607,-0.41051,-1.2265,0.099515,0.94107,0.099497,0.66057,-0.97155,-1.2266,0.53306,0.48211,-0.053427,0.8136,-0.053476,-0.946,0.71179,0.45645,0.55857,1.6041,-0.99703,-3.0626,-0.74203,0.78804,0.63507,0.58407,0.66061,0.35455,0.96657,0.20158,-1.9661,-0.64009,0.12507,0.35453,-0.13002,-0.46149,0.22707,0.023023,0.17611,0.40563,0.43105,0.15053,0.43114,-0.71653,-0.71648,-1.1245,-0.7677,0.94103,1.0942,0.43111,1.4002,-0.053495,-2.2465,-0.20654,0.43101,-0.38514,0.5587,0.073984,-0.30842,-0.84401,-0.51246,0.83907,-0.56341,0.022974,1.2216,0.66056,0.22698,0.58422,-1.3796,-2.3741,0.73704,0.43103,1.2217,0.074008,0.55861,-0.1045,-0.078996,-0.002546,1.0686,-0.76753,-1.9151,-0.69097,-0.51251,0.78812,1.2726,0.76277,0.50766,-0.078959,-0.23212,0.02295,0.91549,-0.92066,-1.4305,-0.30852,-0.23195,-0.10428,1.1197,2.0122,-0.46159,-1.201,-0.053616,0.048445,0.48222,-0.94605,0.32906,0.71166,-0.10445,0.45654,0.8646,-0.35952,-0.078874,1.1451,0.32907,-2.5527,-1.4816,0.30353,0.25248,0.43116,-0.56367,0.81356,0.78813,0.15057,-0.078935,-0.10442,0.023145,0.022986,0.32923,-1.3543,-0.43601,0.45658,0.12497,-0.002485,-0.078947,0.22706,-0.38498,-0.33391,0.55862,0.686,1.5276,0.71161,-3.4707,-0.15548,0.32902,-1.048,0.20155,1.1451,0.86458,0.25257,-0.20646,0.099515,-0.43596,-0.99699,-0.2319,0.55852,-0.13006,-0.38496,0.30353,0.20156,0.099521,0.25261,-1.2011,0.78807,-0.41058,-0.028018,0.50766,0.32904,1.9613,-1.9662,-1.864,1.0431,0.58407,-0.41045,-0.30852,-1.3286,0.63503,0.78804,0.68615,-0.053397,-0.20648,-0.02792,1.5532,-0.027938,-2.6802,-0.20644,1.247,1.0175,-0.66548,-0.20642,-0.13001,0.86469,0.22702,0.68617,-1.9661,-0.33401,-0.30851,0.53306,0.68611,0.32904,0.58402,1.3747,-1.0991,-1.813,-1.1756,1.1452,0.074026,0.15051,0.43113,0.3545,-0.15548,0.048482,0.17604,-0.35948,0.074062,-0.436,-0.86949,1.2217,-0.58898,0.17599,0.38004,-0.13007,0.9923,-0.23192,-0.28305,-1.2265,-1.3541,0.73718,0.32898,0.40557,0.99206,0.63504,-1.4561,-0.027889,0.48213,-1.099,-0.10442,1.3491,0.73693,-1.6091,0.22704,0.17604,0.68609,0.45658,-0.43597,-0.33402,-0.15553,-0.35947,0.048555,0.27803,1.5277,-0.18088,-0.81855,-1.048,-0.15548,-0.8951,0.22702,1.2982,0.91546,-0.027822,-0.92051,1.0686,-0.002461,-0.79305,-0.002467,0.6606,-0.079112,-0.997,-0.61453,0.35454,0.3801,0.60958,-0.334,0.099528,0.86455,-0.94603,-2.3741,0.022986,1.1197,1.2981,1.0176,-0.589,-0.18104,-0.48699,-0.76752,0.76259,0.86461,-0.74195,-0.10448,0.43101,-2.0171,-1.4816,0.60953,1.4256,1.0176,0.25248,-0.20663,-0.053427,1.1198,0.50741,1.1706,-0.48694,-4.4143,-1.3285,0.94114,0.96663,0.83903,0.329,-0.51254,-0.35961,1.5021,0.58416,-0.84407,0.45676,-0.48712,0.3546,0.6607,-1.7621,-0.92048,0.50762,0.048476,0.73703,0.83905,-1.8641,-0.64003,0.48213,2.4202,-0.58918,-1.609,0.63518,1.094,0.3035,-0.38502,0.43108,0.53312,-0.61448,-1.1501,0.22714,-0.56344,-0.1811,-0.18107,-0.53807,0.76263,0.60966,-0.002485,0.2271,-0.7931,-0.10445,1.0176,1.2981,-1.6091,-0.69095,0.022956,-1.1245,0.43107,1.8082,0.63506,-0.053433,0.25259,-1.5071,0.2015,0.2525,-0.38512,0.048518,0.023188,-0.92053,0.99212,-0.76758,-0.20649,0.27809,0.099479,-0.33401,0.71163,0.22702,-0.334,-0.20646,-0.053446,0.81357,-0.053451,0.58407,-0.43607,-0.43583,-0.53817,0.38011,0.22711,0.63514,-0.51245,-1.864,1.4511,0.58393,-0.92062,0.43116,0.63512,0.22708,-0.027962,-0.2575,-0.43601,-0.5125,0.6097,0.76258,0.20152,-0.66552,-0.15556,0.45662,0.60954,0.15052,-1.6091,-1.7366,-0.25744,1.2982,1.4766,0.32899,0.86466,0.86462,-1.4305,-1.9661,-0.027974,0.78818,-0.13005,0.40555,-0.002454,-0.2575,0.78804,0.63509,-0.33396,0.09943,-0.84398,-0.6145,0.38018,0.30355,0.32904,-0.07899,-0.35961,-0.002418,-0.053476,-0.946,-0.691,0.43117,0.78805,0.96663,0.55853,0.73711,-1.303,-0.38499,0.35455,-0.436,0.40561,0.35451,0.48203,-0.58905,-0.35942,0.074002,0.45658,-1.609,-1.0989,-0.18106,0.89009,1.4,0.60946,1.4766,0.66064,-1.3285,-1.15,-1.4561,-1.2011,0.50759,0.40555,1.3492,0.099546,-1.8131,0.55859,1.0687,0.073928,0.15049,-0.002534,-0.30851,-0.2065,-0.027969,0.30364,0.048487,0.17607,0.45654,-0.76753,-2.8842,0.4567,1.8337,0.55862,0.38011,1.2472,0.25243,-2.2212,-2.0171,0.40553,1.4513,0.55864,-0.20646,0.81341,1.2727,-0.61457,-1.0481,-1.1245,0.71163,2.4967,1.0177,-4.7712,-3.1137,1.6551,1.3491,1.2471,1.0687,-0.02809,0.53304,-0.002467,0.38025,-1.2777,-0.33394,0.099632,-0.66554,-0.1045,0.50743,0.584,0.66067,-0.51245,-0.76743,-1.5325,0.86461,0.25253,1.5021,0.20149,-1.1756,0.94104,-0.002454,0.40555,-0.66551,-0.30838,0.91565,-0.20646,0.1506,-0.385,0.25262,-0.84412,0.048482,0.60955,0.022961,-0.33402,-0.15545,0.73712,-0.66538,-0.8186,0.94107,0.91557,0.25253,-0.33393,-0.35959,-0.43585,-0.58904,0.55861,0.25255,-0.02795,-0.30856,1.7317,-0.64006,-1.5835,-0.078984,0.45657,0.43098,0.15054,-0.1554,0.15045,-1.9406,-0.38495,0.89005,1.196,-0.33401,0.43122,0.40565,0.3289,-0.74196,-0.436,0.22705,-0.027974,-1.2011,1.6044,0.022974,-0.8441,0.78813,-0.30854,-2.7821,-0.23209,0.63505,1.4257,0.533,1.0941,0.27804,-0.078953,-1.405,-0.38486,-0.053513,0.45649,-0.079039,-0.15546,-0.02809,0.76269,0.43109,-0.30836,-0.41037,-0.436,0.048536,0.6605,0.25254,-0.23199,0.15057,0.20152,0.38008,-0.97152,-0.38495,0.48208,-0.28308,1.7062,-0.05372,0.63529,-0.51244,-1.7111,0.40558,0.8391,-0.20649,-0.053458,1.6296,0.074044,-3.1901,-1.1756,0.048391,1.4257,0.58405,1.1707,0.40545,0.27818,-0.13002,-0.63997,-0.61462,0.5076,0.71154,-1.7366,-0.20638,-0.53806,0.83914,0.30363,0.074069,-0.46145,0.37997,0.35444,0.48209,0.53302,-0.46147,-0.002436,-0.25745,-0.69102,-0.5125,-0.3595,0.60963,0.17587,1.0176,-0.30847,-0.2574,0.60958,-0.66552,-1.1245,-1.5581,1.5788,0.50749,-0.181,-0.41057,0.35459,-0.2831,1.3494,-0.027987,0.048536,-0.028018,-0.84403,-0.84407,0.6095,-0.41051,-0.99702,-0.56351,0.023163,0.63506,1.5787,0.68599,-0.6655,-0.61446,-0.48716,1.4257,0.38006,0.7626,-0.10445,-1.6346,-0.078892,-0.38508,-0.76751,-0.35946,1.4767,1.1706,0.83903,-0.33393,-1.9916,0.94113,0.7881,-1.405,-0.13004,0.22702,0.68605,0.17595,-0.35962,0.53325,-0.002405,-0.35939,-1.3032,0.48212,-0.00243,0.27805,0.022919,-0.10451,-0.12999,1.3747,-0.10447,-2.5526,1.4767,-0.56355,-1.3795,0.86463,1.4511,-0.7165,1.2216,-0.51248,-0.053415,0.25251,0.83909,0.48201,-0.25743,-0.053451,-0.002485,-0.99704,-1.558,-0.28304,0.17609,-0.56351,0.17593,0.53317,0.63509,-0.053592,-0.10442,0.27801,1.5277,-0.58889,0.45659,0.25255,-0.25746,-1.3796,-0.12996,0.63505,-1.0226,-2.3741,0.78809,1.4001,1.0686,0.83916,0.45658,-1.2776,-0.5126,-0.053495,1.0687,-0.053446,-0.86953,-0.793,-0.43597,0.45656,-0.25741,-0.94612,1.3492,0.073977,1.0686,0.12496,-0.48695,0.27809,0.73711,0.099503,-1.7876,-0.3084,0.66055,-0.33405,0.099521,0.53309,0.35448,-0.436,-0.18092,0.02301,-0.20639,-0.41049,-0.33405
1,0.22703,-0.35958,-0.25746,0.15071,0.48205,0.43105,-0.18098,-0.30847,-0.10449,0.40555,-0.15548,0.22704,0.20153,-0.10447,-0.079008,0.15057,-0.25751,-0.30845,-0.38495,-0.053409,0.5076,0.023023,-0.66556,0.3035,0.32904,-0.028011,0.25259,0.17608,-0.283,0.35456,0.78812,-0.71652,-0.20647,-0.002472,-0.027962,-0.69103,-0.436,0.023035,0.12504,0.60968,-0.079002,0.45654,0.45658,0.048469,0.048469,-0.18096,0.023072,-0.25744,-0.56345,-0.86955,1.1707,-0.5636,-0.43603,0.35456,0.20158,-0.20645,0.3801,-0.053427,-1.048,-0.15559,0.58401,0.60955,-0.053495,0.76256,0.074062,-0.30844,-0.84399,-0.64001,-0.28298,-0.027925,0.32908,0.43108,0.15051,0.12502,0.074038,-0.027969,-0.18098,-0.38498,-0.20646,0.17603,0.38012,-0.079033,-0.028047,0.048536,0.20158,-0.07899,-0.20647,-0.35948,-0.18098,0.43108,0.73709,-1.0225,-1.0735,0.91556,0.83915,-0.8696,0.48216,0.35449,0.20155,-0.46151,-0.66551,-0.10452,0.32894,1.1452,-0.053476,-1.5581,-0.56338,0.3801,-0.15546,1.1196,0.71162,-0.18096,-0.13006,0.17596,0.38013,-0.20647,-0.46152,-1.048,-0.35943,0.50765,0.38007,0.22702,-0.41051,0.25249,0.89013,-0.18097,-0.86953,0.22708,0.22702,0.32907,0.55861,-0.56351,-0.027993,0.63499,0.048616,-1.4304,-0.23188,1.0178,0.48203,-0.33412,-0.79312,-0.48711,0.073977,0.2525,0.43107,0.32904,-0.1045,-0.18087,0.0741,-0.33402,0.1761,-0.61444,-0.38499,1.4002,0.40551,-1.0482,-0.43597,0.83901,-0.43605,-1.0225,-0.18091,1.0176,0.60963,-0.18104,-0.92053,-0.61452,0.048506,0.15065,0.12495,0.32905,-0.002448,0.78804,0.40549,1.4256,-0.51248,-3.5216,-0.28301,2.089,1.043,0.25248,-0.48699,-0.33406,-0.99717,-1.8387,-0.86943,0.83915,2.4457,1.0942,-0.25738,0.78814,-0.10447,-0.028005,-0.38507,-1.8896,-0.38506,0.35461,0.074026,-0.69108,0.43108,1.2471,-0.027962,-1.099,0.71159,0.58407,-0.69099,-0.436,2.0634,-0.94611,-2.5018,-0.30857,2.8794,2.1141,-1.9917,-2.8333,0.099521,1.5277,2.3183,-0.35948,-2.1955,-1.099,0.3545,0.099601,2.9048,1.2471,-1.9661,0.37997,-0.18098,-1.1245,-1.2521,-0.86945,0.58408,0.66056,0.099442,1.6552,0.40545,-0.46134,-0.30858,-0.99713,-0.41041,0.32904,0.27809,1.3746,1.4771,-2.7056,-0.41052,1.2725,-1.4816,0.8645,1.0686,1.5786,-0.02792,-0.99702,-0.28303,0.20166,1.1196,-1.0226,-4.3377,-0.63984,-0.15554,2.5988,2.8793,-0.43605,0.86467,0.9917,-2.0169,-5.7659,1.6297,3.4148,1.9103,-0.94592,-2.8586,0.86449,3.3637,1.7314,-1.7366,-1.864,-3.7511,1.2728,1.4001,0.22703,-0.53807,1.0431,2.6753,0.89011,-4.0573,-1.6601,2.1396,0.074026,-0.46151,-1.048,0.43119,0.20142,0.023212,-0.81857,2.1651,1.4765,2.3948,-2.0169,-2.0171,0.7627,-0.94612,-1.1757,-0.33391,2.1907,1.4767,-0.15549,-1.0481,-0.92032,2.1144,-1.2523,-1.0993,-4.0318,2.038,2.8537,1.4767,0.6861,0.22707,0.40562,-1.2265,-3.0627,-1.8642,-1.8896,3.3127,2.0376,0.27792,-0.58895,-0.58896,-0.4104,3.3128,-2.2975,-3.8278,1.9358,1.9612,-0.538,-0.053689,1.0177,-0.61455,1.3747,-1.6345,-0.1047,0.88989,0.48201,-0.61457,-0.41029,0.89021,1.528,-2.7565,-0.66544,-0.15552,1.9356,-1.3798,-1.4817,2.1142,2.0376,0.58407,-1.4307,1.1452,-0.35938,-3.037,-2.4506,0.048549,1.7572,-0.38528,0.76254,1.5532,1.2471,0.32904,-0.41044,-0.18096,0.78808,-0.18104,-0.79291,-2.2977,-2.017,2.5222,-0.002454,0.71152,-1.6346,-1.4051,1.2215,0.81354,0.96664,1.0941,0.55858,0.50754,-1.0988,-3.9552,0.60973,1.2982,0.66058,-1.0738,0.76271,-1.0736,2.4457,-0.053544,-1.9662,1.9104,0.66054,-0.38504,-0.69095,-0.25758,-0.58908,-1.0479,1.1195,-0.35954,0.9665,1.5277,-1.4558,0.30357,-0.002443,-0.10442,2.4966,1.0175,-0.002558,-0.71652,-2.3231,0.023255,1.8338,-0.61445,-3.4197,-4.4397,3.1342,2.3691,1.1194,1.655,0.63496,-1.0225,-1.0735,-0.51252,-0.86953,1.2726,0.53306,0.38017,0.38024,-0.41049,0.12495,-1.7367,-2.068,-0.12989,0.91563,-1.1246,-1.5326,2.726,1.0941,2.4202,3.3128,-1.7621,1.6552,-4.1592,-6.633,2.2674,1.6297,0.58402,0.35451,0.48201,0.86466,-0.79307,-3.0882,-0.30842,2.0121,1.9102,-1.2775,-0.84383,0.55861,0.48176,-1.1756,-0.002625,1.094,-0.92038,-4.5928,1.7063,2.4713,1.9611,2.012,-0.63993,-1.3795,-0.51241,0.96667,-1.9151,0.32906,1.2216,-2.8333,-3.2923,0.43103,2.7517,4.2818,4.3077,-3.4961,-0.79297,0.07394,-2.8077,-1.1246,3.2617,0.63504,-2.7056,-2.5017,1.1451,1.0687,1.1708,1.7827,-0.15553,-0.35961,0.96638,-1.0737,1.2471,1.8083,-5.7147,-4.0316,0.81349,1.9868,0.04836,1.5786,1.2981,2.2928,-1.0991,-3.1137,0.76248,-0.027969,-1.456,1.1452,1.1196,0.25254,1.4766,-2.9096,1.3492,-1.2776,-1.8641,-0.30849,-1.9151,0.58416,2.2927,3.3892,1.553,-0.002601,-0.10434,-0.9205,0.25273,-1.2265,-3.5471,-0.64003,-1.5581,0.58407,4.5113,-0.43602,-4.2614,0.17622,2.1396,2.8537,0.32906,-1.4817,-0.946,-0.20631,2.3182,-1.3795,-2.3485,0.022968,1.5532,0.25238,-0.66569,-2.2721,-0.079002,0.02309,1.4001,2.0886,-0.20636,-0.63993,-0.20641,0.32905,0.99214,-1.8897,-1.6856,0.27809,-0.23202,1.4001,1.9101,-1.8131,-0.436,3.9248,-0.74198,-4.6183,-1.252,2.2672,1.5786,0.992,0.35464,0.63519,-0.51242,-0.74208,-0.92061,-0.63998,-0.18098,-0.35957,-0.20657,-0.13007,0.22701,0.81371,0.8647,-0.23181,0.20176,-0.63995,-2.4251,0.20122,1.0685,1.4255,2.3438,1.6552,0.68611,-1.0735,-1.7111,-2.9607,-1.2011,1.7061,1.2727,1.6807,-0.15556,-2.1955,-1.8386,1.1197,1.0176,-1.0481,0.25257,-0.002577,0.94095,2.9814,-1.4307,0.27831,-0.20658,-1.1755,-0.63984,-0.41049,0.99224,0.81355,-1.5837,0.32895,-0.35962,-1.4817,-0.053451,1.7828,0.81366,-1.4304,0.0741,1.0686,1.4001,-0.97148,-0.35944,-0.58896,-2.5016,0.023041,0.63502,1.3746,1.247,0.22701,-0.94608,-1.0226,0.022974,-0.027858,1.4003,0.89005,-0.53799,-3.7767,-2.5271,1.3234,2.7261,2.6752,-2.119,-2.5271,1.3491,2.0887,0.94092,-0.35947,0.17619,0.40561,-0.86961,-0.92051,-0.2575,-1.2521,-0.35955,-0.35959,-0.51262,1.3749,-0.69083,-1.4305,-1.1247,1.3746,3.0323,1.2217,0.99207,-0.46153,-2.1956,0.43108,-0.8185,-0.7931,0.25255,-0.35966,0.99225,-0.3086,-0.02798,-0.43597,-0.38494,-0.46151,-0.10439,0.40565,-1.8131,1.0685,1.6806,1.4258,-0.71666,-1.9662,0.25252,0.12519,0.38006,1.4767,1.3492,0.099637,-1.2011,-0.76765,-1.2266,-3.1391,-0.15548,1.4002,0.2781,2.1397,-0.18109,-1.2521,1.2471,-1.5582,2.7519,1.7317,0.48218,-2.5016,1.0687,-2.0937,-2.0939,2.8283,0.96652,0.73708,-0.66537,-0.10443,0.22708,-2.4507,-1.6091,0.81364,1.2981,0.68608,0.73718,-0.81865,-0.30855,0.25261,0.48201,-0.18081,-1.7111,1.4256,1.7572,-3.5727,-0.46155,0.83899,1.4767,-0.79301,-0.81852,1.2471,0.99205,0.53309,0.38018,-2.1955,0.58417,-0.76759,1.4001,2.8536,-2.4252,-2.5781,-0.13,0.86471,0.25249,-0.48712,0.68605,0.40545,-0.48691,-1.4559,0.43107,1.0432,0.02323,0.32905,-1.4308,-1.4305,0.73703,0.76258,0.55859,0.40553,1.043,-0.30855,-0.94615,0.40552,-1.5579,1.4513,-0.18089,-3.9553,2.0375,1.553,0.27801,1.2472,-0.58894,-1.3795,1.0432,-1.0736,1.5277,-0.5125,-0.86964,0.20138,-0.84401,-1.5324,0.83908,1.0686,-0.89511,0.023047,-0.33401,0.40547,2.0377,0.94108,-0.86942,-0.69101,0.63512,0.30358,-0.48701,-1.3797,0.15046,1.9356,0.68602,-2.4506,-1.0735,-0.81861,-1.2264,-0.84399,2.0121,2.4712,0.35465,-0.053482,0.17612,-0.71657,-0.84422,0.2527,0.022925,1.8591,1.298,2.0633,-2.5271,-2.6291,-1.66,0.048469,0.58398,0.83919,0.43094,0.15049,-1.0481,0.15059,0.15052,0.43099,0.074044,0.17616,1.1196,-0.58907,-0.76737,-0.84393,1.6043,-0.89508,-0.71662,2.0886,1.5021,-0.12992,-0.23189,-0.79312,-0.10462,-0.46156,1.0432,0.73709,-2.6291,-2.1446,-1.099,2.5478,-0.002443,1.3746,0.15045,-0.946,0.35446,0.60957,0.22718,0.17604,0.66064,-0.30851,-0.99705,-0.66563,-0.002454,0.15059,-0.41058,0.71157,-0.74203,-0.078886,-0.3595,-1.1245,0.78822,1.0685,1.2215,-0.64004,-0.99707,0.81363,-0.946,-1.711,1.2981,0.32913,0.99218,-0.053622,-0.15556,1.1451,-1.507,-1.4306,1.4511,0.99217,-0.23199,-0.84434,0.25282,-1.201,0.78813,-0.48701,-0.86961,0.38005,1.5786,-0.20655,-0.027944,1.2727,-0.48693,-1.2011,-0.61438,-0.23207,1.5021,1.8081,-0.028023,-0.8695,0.83908,-0.84397,-1.456,-0.12996,0.58407,0.7115,-0.079112,-1.0481,0.58407,1.1197,0.22697,0.81352,-1.405,-1.711,0.83906,0.22708,-0.3085,1.0175,1.3746,-1.5071,-0.94603,0.99212,-0.89494,-1.5836,0.58407,0.074087,1.3747,0.073995,0.71154,-0.33399,-0.8693,0.25252,1.5786,0.12497,-3.1647,-0.12989,0.35453,0.78797,0.43115,0.76255,1.5531,-0.61451,-2.3231,0.1761,-0.13002,-0.15545,0.35458,0.22707,-0.41063,0.02298,-0.33408,0.30352,-0.8695,-0.74201,1.2727,-2.17,0.25248,2.2416,1.6806,-0.30849,-1.9152,1.273,-0.079063,0.25244,0.099552,-2.2722,-1.2521,-0.30861,0.941,2.4204,-1.0736,0.20167,-0.58904,-1.8641,0.38011,2.5988,0.66058,-1.0735,-0.56348,-0.51262,-0.002448,0.48205,0.482,0.96663,-0.18097,-0.58901,0.25248,-0.12995,-0.84392,0.50765,1.9867,-0.81843,-2.8585,1.6805,0.22705,-1.048,0.8135,-0.7931,0.099473,0.048531,1.6042,0.68596,-0.99697,-0.028054,0.27796,-0.12993,0.60967,0.99223,-0.23198,-1.7875,-1.5326,-0.28293,-0.28298,0.89007,1.094,-0.15553,-0.10448,0.55852,-0.35952,0.25248,-0.46147,0.074111,0.76261,-0.48708,-0.23203,-0.7674,-0.63995,1.4512,1.5021,-2.17,-1.1755,0.76259,1.7316,0.68598,-0.20648,-0.538,0.30358,0.45663,0.099559,0.22713,-2.1702,-1.2775,0.53306,0.048476,0.17591,1.3237,1.5021,0.17612,-2.0171,-0.15548,-0.028047,1.8592,0.25273,-0.30853,-0.51258,-1.0225,-0.20652,1.4513,-0.028023,1.2471,1.3491,-0.38503,-2.2976,-1.5835,-0.69091,0.83911,0.7625,1.7316,-0.76763,-1.8386,0.20155,2.0889,0.17616,0.22708,0.20151,-0.61461,0.5076,-0.28295,-0.43602,-0.35951,-0.76746,-1.5325,0.58403,0.40553,1.0176,1.196,2.5223,-0.53803,-4.8222,-1.0225,1.4766,1.1706,-0.48703,0.38006,1.7317,1.196,-1.2775,-1.762,1.0941,0.073995,-0.84403,-0.48692,0.32903,0.81365,-0.18103,-0.38507,-0.79307,1.5024,0.66049,0.7625,-0.92041,-0.35938,-0.002521,1.094,1.6043,-2.3997,-1.9661,-0.053446,0.27803,1.0431,1.5276,0.022931,0.38015,0.83901,0.50768,0.81368,-2.5017,-2.4252,0.53299,1.0686,0.30374,-0.8184,-0.002467,-0.46157,0.074002,1.247,1.2215,-0.23196,-0.33392,-0.12991,-0.1809,-0.15541,-0.5125,1.0685,-1.201,-1.4562,0.20156,1.5532,-0.002394,-0.56353,0.68608,0.048366,0.40564,-0.10443,-0.74189,-0.23207,-0.002443,1.2472,0.22694,-1.9916,-0.46156,0.38022,0.76255,1.4001,-2.5526,-1.7111,0.63492,1.0686,1.5277,0.38013,0.20155,-0.18099,-0.4612,-1.3542,0.55847,1.247,-0.28293,-2.6547,1.8339,0.8646,0.43106,-0.53811,0.30363,-0.25748,-0.25751,-0.5381,0.73703,-0.18107,0.099466,-0.69094,-0.30843,0.048561,0.55873,0.32919,0.48205,1.6552,-1.6348,-3.0627,-0.002491,0.584,1.1961,0.32923,-0.20648,0.40552,1.1962,-0.053495,-1.3542,0.022889,-1.6347,0.35465,1.0177,0.83923,-1.4815,-0.027998,-0.58897,-0.79309,0.68602,1.7316,0.94111,-0.74205,-0.3085,-0.92049,1.1707,-0.028047,0.63501,-0.38507,-1.2775,2.6753,0.9666,-5.5363,-1.354,-0.61457,0.86463,1.4256,0.12493,1.3236,0.81354,1.0175,1.4004,0.27798,-2.9095,-0.02792,0.68616,-0.86948,-2.2722,1.1195,0.40554,0.6605,-0.002491,0.40557,-1.4561,-0.94599,0.53312,0.99216,0.60946,1.2982,-2.8841,-1.1246,1.0686,0.73712,-0.92048,-0.23205,0.66053,0.30356,0.63505,-0.81857,-0.4871,0.71164,1.7062,-0.027944,-2.0425,-1.4815,-1.3032,1.2726,0.15049,-1.0989,1.2216,3.1853,0.71159,-2.4507,-0.18095,0.17604,-0.23202,-0.20646,1.5276,-0.64005,-3.8532,-1.5581,1.5276,1.7315,1.6552,0.91568,-1.3284,-0.84407,0.48209,-1.6346,-0.23191,1.2216,0.38006,1.4001,-0.48695,-1.1501,0.22697,0.2525,-0.053476,-1.5327,-0.56339,0.66082,1.4256,-0.35956,-0.30846,0.40558,0.50754,1.2726,-1.7875,-3.7002,1.8337,0.86451,1.8082,0.12505,-0.25744,-0.43601,0.48216,0.45656,-1.2267,0.78812,-0.41063,-2.3487,-0.10449,0.86466,0.63512,0.53317,0.27813,1.0943,-0.92053,-0.0535,-0.74214,-2.0681,1.7061,1.451,0.94107,0.099461,0.30369,-0.84416,0.074093,-0.35953,0.22718,0.023059,-0.41056,-0.79307,-1.1246,-0.5126,1.8084,1.1706,-1.0225,-2.5272,1.3746,1.043,-0.2829,0.048555,0.78809,0.81351,1.0942,-1.5581,-1.1246,-0.33399,2.0377,0.022796,-1.0989,1.0431,-0.41046,-1.5835,-0.69111,-1.0226,0.73708,0.89014,-0.69095,1.1451,0.8901,0.43106,-0.053451,-0.053378,-0.28294,0.94105,-1.6346,-1.7366,0.2015,0.94114,0.53308,0.99216,-0.23203,-1.9152,0.66072,-0.078996,-0.64003,1.6552,0.15059,0.60952,-0.35961,-0.66554,-0.38489,0.099595,0.3035,0.048433,-0.94611,0.20153,-0.46156,-0.94603,-0.053213,0.94111,-0.385,-0.079008,-0.66546,-0.58908,1.5786,2.0378,0.43103,-0.41055,0.78827,0.073861,-1.5327,-1.9915,-1.5071,0.12505,0.20149,-0.1555,1.0433,1.2983,1.1452,-0.18105,0.176,0.48209,-0.76752,0.50744,-3.2158,-2.2467,0.45672,0.4311,2.0887,2.8027,-0.76745,-2.6546,0.40547,1.094,-0.20643,-1.4051,0.53318,0.86472,-0.10442,-0.94608,0.35451,0.5585,1.1196,-1.6347,-1.558,0.45647,0.81358,-0.92058,0.76261,0.58422,0.48206,0.048641,0.83909,0.073995,-2.6548,-0.58911,0.68596,0.53314,0.71173,-0.58896,0.048549,0.45663,0.40556,-0.69106,-0.41043,0.25255,0.66045,-0.53805,-2.6802,0.35462,1.4767,1.0431,0.96679,0.58425,-0.46159,0.94112,-0.79308,-0.33401,1.196,-1.8388,-3.5472,0.12512,0.71163,1.0687,2.1908,2.4202,-2.3741,-2.2977,0.22701,0.43106,1.1451,1.2727,-0.58901,0.55861,-0.15551,-0.30854,1.1196,-1.8132,-2.7056,-0.30846,1.1706,0.40539,0.43099,0.89032,0.71165,1.2216,-0.74211,-1.1246,0.0485,0.40552,-0.61448,-0.41036,0.48204,1.0175,-1.6601,-1.5071,0.25252,1.2727,-0.13001,-0.027969,0.89012,0.68608,-1.354,-0.56339,0.099534,0.099528,0.30356,-0.53813,-0.35943,1.4511,1.5022,0.32916,-0.84413,-0.89507,-0.7165,-0.69101,0.32892,2.3692,-0.51262,-2.5017,-1.0735,1.1706,0.66077,-2.0427,-0.23199,1.4002,1.4256,0.60957,1.9866,-0.61452,-0.4105,-3.4452,-2.4761,1.7317,1.5787,1.1451,1.9612,0.38007,-0.71652,-1.2266,-0.63996,0.099601,-1.7622,1.6043,0.30348,0.074149,-0.002485,-0.4361,1.0688,0.15043,-0.053482,-0.64001,-0.79313,0.48214,-0.25757,0.55871,0.66072,-0.38499,0.15056,0.78812,-0.74196,-3.6492,1.145,0.58393,0.38013,1.1961,-0.028011,0.89025,-0.002412,0.15054,-1.4816,-0.41051,0.50754,-3.2412,0.99224,-0.46145,-0.30846,1.1961,1.8081,0.37995,-0.12989,0.35451,0.91563,-0.18098,-1.2522,0.50755,-0.46144,-1.303,-0.15549,1.2217,-0.97159,-1.4815,0.94103,1.6552,-0.63993,-2.2722,0.43109,0.60945,0.60959,0.32921,-0.30846,-0.63996,0.76255,1.2216,1.5276,-1.0226,-3.3177,1.145,0.8646,-1.3795,-0.48699,1.1197,0.91559,0.50752,-0.23203,-0.97153,-0.35953,-0.078917,-0.10449,1.0176,1.6042,-0.74195,-0.48695,-0.58909,-3.4452,-1.0225,2.2671,-0.33396,-0.25753,0.96669,1.1961,0.12509,-0.35959,0.048525,-0.028054,0.22719,-1.6346,-0.35953,0.48208,0.20149,-0.23201,-0.74189,-0.15545,0.71154,0.91557,0.73724,-2.1191,-0.2065,1.2982,-0.053488,1.2726,-2.3996,-0.41054,1.8592,1.2216,-0.15548,-0.74209,-0.38499,1.4767,-0.41046,-2.6802,-1.0736,-1.3541,0.96663,0.94111,0.58406,0.83913,0.53316,0.58419,0.023035,-0.079008,-0.58901,0.20145,-0.1554,-0.94609,0.023133,0.99217,0.94104,-1.5326,-2.0171,0.12504,1.2472,-0.56354,0.81368,0.2525,0.20151,0.55853,1.1706,-0.25744,-1.6345,-1.1245,0.55859,0.40554,0.5841,-0.10438,0.12501,0.27802,-0.79316,-0.053427,0.63506,-0.41051,-0.79304,-0.38489,0.48202,1.2471,1.4511,-1.7365,-1.4306,1.9614,-0.41061,-0.28309,0.71166,0.6096,0.76267,-2.2976,-0.69107,1.1195,0.50755,0.17604,-0.46155,2.0123,-0.97146,-2.7057,0.15061,-0.18108,1.1962,0.91553,2.0122,0.38,-0.58896,-1.9406,-0.46147,0.2526,0.53302,0.12505,-0.2575,0.68608,0.048561,-1.7366,0.32907,1.1196,-0.25743,-0.41048,1.6552,-0.3084,-0.002497,0.83911,-1.8387,-1.7622,3.0833,-1.9406,-2.8077,0.89009,2.1908,0.50752,1.2471,-0.027987,-0.56346,1.6297,-0.41044,-3.6237,0.40563,-0.69104,-1.1756,0.89009,0.83903,1.0431,1.247,-0.027944,-0.79296,-0.283,-0.002461,0.20155,-0.436,0.71159,-0.48695,-1.5582,0.099479,1.3747,0.48227,-1.1501,1.6297,-0.35941,-3.7003,0.25257,0.50738,1.145,0.68607,-0.53801,-0.84403,1.6042,-0.23188,-0.436,-0.99704,0.89007,0.78804,0.38009,0.86456,-0.33401,-2.6546,-1.6344,0.22718,0.43109,1.0942,0.12499,-0.71657,0.20146,0.78807,1.5276,-0.33401,-2.578,-1.303,1.5277,2.6497,0.15048,-2.1702,0.32912,1.6806,0.43116,-1.507,-0.33399,-0.56353,0.12501,0.83908,-0.33401,-2.0681,-0.43602,1.3746,1.6296,0.83909,0.91565,-0.76746,-2.8586,0.25265,-0.25752,-0.13,0.38,1.5786,0.66061,0.12507,-0.3596,-2.2211,0.6096,0.074075,0.023096,0.58412,0.38003,0.43107,-0.41062,0.58405,-0.66559,-3.0117,-0.64001,0.76262,1.0686,0.48211,-0.28301,-0.053451,0.83915,1.3238,0.48201,-2.6292,-1.9661,1.5531,0.27809,0.074136,1.2726,0.99207,0.30348,-0.81852,0.40547,-0.23205,-2.6037,-1.5835,-0.51253,0.83908,1.2216,1.3236,0.91565,0.6606,0.12499,-1.1755,-0.76756,1.2471,-0.46148,-3.3432,0.89025,1.4767,1.2471,1.1705,0.22712,-1.3285,-0.23199,0.17603,-0.84404,-0.6145,-0.10456,1.1196,1.0941,-0.51257,-1.9661,0.83917,0.25248,0.43131,1.0687,0.7115,-2.5017,-1.2521,0.94104,0.96671,0.048573,0.8391,0.66055,-1.5836,0.76272,0.66053,-0.079033,-0.38502,0.30351,-0.23204,-2.3741,-2.2976,1.9357,0.73719,-0.23205,0.78811,0.78804,0.7881,-0.69104,-0.61442,1.2471,0.73702,-0.92065,-2.1703,0.58412,0.76266,-1.864,-1.4815,0.60955,1.5532,0.96667,-0.002485,0.30353,0.58407,0.55858,-0.79309,-1.6601,-0.25755,1.6551,-0.8695,0.7373,-0.71658,-1.6855,1.5022,1.1196,-0.053506,-3.3177,0.83903,0.63504,-0.30852,1.4255,1.2982,-0.053458,-0.81843,-0.23194,0.048616,0.76259,-1.1246,-0.43601,0.48214,0.17604,0.2781,-1.3796,0.074051,1.1451,-0.94605,-0.61452,1.8846,0.074033,0.86487,-0.23202,0.17597,-0.027998,-1.4561,-2.4251,1.4001,1.1961,-0.002472,0.38006,0.20157,-0.18103,0.2527,-0.12999,-0.33403,-1.354,-1.456,0.89009,1.1705,0.40548,-0.20641,-0.9206,1.0177,1.6041,-0.538,-1.0226,1.1451,-0.7675,-0.30849,0.91565,-0.74197,0.32933,-0.7166,-0.79311,-0.84401,0.91552,1.2216,1.7571,-0.05347,-1.8386,0.55858,0.78822,-0.30841,0.4566,-0.053573,-2.5527,-0.10453,0.12501,0.20152,-0.18112,0.60967,1.0432,-1.2774,-0.10445,0.53302,-0.02798,-1.3541,-0.30856,0.32899,2.2928,1.4256,-1.9406,-2.0936,1.2471,-0.002467,0.50765,0.099528,-0.10456,0.27805,-0.61451,-0.002387,0.83912,-0.25751,-0.81844,0.50754,0.25245,-0.15548,-0.53799,0.71157,0.2015,-1.5581,-1.3796,0.48213,0.40558,0.58408,0.73711,0.71161,-0.4615,0.6351,0.023059,-1.2519,0.35456,0.53302,-1.2267,-0.92049,1.3236,-0.46148,-0.66545,1.0176,-0.079021,0.023041,0.66061,0.40549,-1.3031,-0.30847,0.73709,0.68613,-0.30851,-0.30843,0.15052,-1.8387,0.35457,0.73703,1.2472,0.55871,-0.41044,-2.1702,-0.69117,0.78799,-0.51243,-0.078837,-0.9715,1.5786,0.99212,0.9156,0.96659,-0.33404,-2.1446,-0.76755,0.55853,2.3948,-1.5324,-2.5271,-0.13003,0.43096,1.2981,0.58407,-0.3594,-0.66551,1.0176,1.6807,-0.48706,-2.2721,-1.0991,0.81363,0.48214,-0.23197,-0.00251,-0.15557,0.83924,1.1706,-0.9206,-2.2467,0.68621,0.17613,0.78797,0.58412,0.68606,1.2981,-0.30856,-2.6037,-1.864,0.76268,0.176,0.99223,0.50762,0.96655,0.27798,-0.79302,-1.1757,-0.86954,0.86462,1.1707,-0.51253,-1.5326,-0.078879,0.89009,0.76257,0.099497,0.074038,-0.028005,0.8136,-0.23191,-0.94603,-0.51252,0.6606,-0.58901,0.30366,0.76256,-0.51263,-1.9152,1.5532,1.2472,-0.41051,-0.53803,-0.002485,0.45662,0.8901,0.023035,-1.201,-0.43596,-0.76757,-0.23213,0.12505,0.96672,-0.027925,-1.0737,1.6807,1.2726,-1.2521,-0.8694,0.66051,0.3291,-0.20639,-0.2065,0.50751,-0.53805,-1.2776,0.76258,1.4766,1.3746,-1.2775,-2.4251,0.25262,-0.078996,-0.12999,0.63503,1.0685,2.0631,-0.053506,-1.5836,-0.25748,0.43113,-0.28288,-1.1756,0.66053,1.5023,-1.252,-0.2575,0.22701,-0.46149,0.8391,1.1706,-0.33399,-0.74188,0.074013,0.78811,0.35458,-1.8387,-0.079039,0.12501,-0.66545,0.27809,-0.15547,-0.15548,0.48203,0.35453,0.22701,0.76262,1.2472,0.9157,-2.2721,0.58406,-0.946,-1.2776,0.2525,0.48209,0.94103,0.71157,-0.89496,-2.3742,0.55864,0.83907,0.71157,-0.28303,-0.46154,0.38001,1.4003,0.074013,0.15051,-0.002374,-1.7112,-1.9916,1.3492,1.1961,-0.2575,-0.76752,0.68613,0.17597,0.25246,-0.25739,-1.0225,1.8335,0.50756,0.8136,-0.23184,-1.252,1.0431,-1.8386,-1.4816,0.27803,0.7626,0.27803,1.8337,0.176,-1.5581,0.43104,0.30359,-0.86961,0.91569,0.20158,-0.10444,-0.38499,1.3238,-0.43606,-1.7622,-0.15544,1.1961,1.2981,-1.4561,-1.2775,-0.35947,1.7062,0.099564,0.38001,1.1196,1.7062,-0.74194,-2.5526,0.83909,0.12496,0.48205,-1.1501,-1.2011,0.27809,0.73707,0.78809,0.35461,0.048482,-0.002516,0.58403,-0.742,-1.1245,0.89016,0.91567,-0.79307,-0.64005,0.20147,-0.23201,-0.002565,1.8592,0.22723,-1.8386,-0.15545,0.22714,0.66055,0.53306,0.37995,-1.9406,-0.436,0.40556,0.023059,-0.86958,0.66067,0.45647,0.30357,0.40553,0.58405,-0.48702,-0.844,-0.10447,-0.20649,-0.078935,0.5077,-0.89508,0.58413,0.66062,0.91537,-1.9661,-1.1755,0.73703,-0.002332,0.91559,0.78822,-0.69115,0.91571,-0.10459,1.0176,0.25255,-2.2721,-0.078923,0.63514,-0.69103,-0.15543,-0.10449,-0.84404,-0.43599,0.50756,0.96655,0.5075,0.35468,-1.3541,0.074081,-0.12992,1.1962,0.048494,0.023023,0.22703,-1.5581,0.22702,-0.79305,-0.18091,0.66066,0.17609,0.63509,0.25254,-0.58904,-1.2776,-0.20647,0.48211,1.0942,0.22694,-0.15534,-3.1649,0.83914,1.7572,-0.10459,-0.997,0.63505,0.83903,1.6297,0.1761,-2.8331,-1.9661,1.4512,0.96656,-0.33391,-0.10456,0.60956,0.5076,0.27803,-1.048,-0.46154,1.1706,-0.078977,-1.2521,0.71162,1.3747,-0.76746,-1.2011,0.27808,0.53313,-0.181,1.0942,-0.00254,-0.81846,-1.2266,0.55846,0.30355,-0.053482,-0.002436,0.30359,0.55862,1.8082,-0.94603,-2.6291,-0.71649,-0.71653,0.50747,1.8848,0.38011,0.12504,0.17597,-0.74209,-0.35953,0.329,0.78811,0.27805,0.71165,-0.61456,-0.15554,-2.0426,-0.20641,0.63517,0.96667,0.68622,0.074111,-0.07907,-0.81867,-1.1757,-0.33407,0.25246,-0.23196,1.5533,1.3747,-1.0225,0.66051,0.66055,-4.1083,0.023029,0.8136,2.2928,1.8592,-0.41051,-0.2065,0.09951,-1.9661,-1.7876,0.63509,0.27805,0.66066,0.55859,0.91556,-0.92047,-0.3595,-0.41043,0.40547,0.89001,0.71153,-0.48695,-0.38499,0.35462,-0.002387,-0.46152,-0.002503,0.22699,0.2782,-0.35954,-0.13003,-0.81853,0.43103,1.6552,-0.053476,-1.6601,-1.2519,-0.25742,0.94107,1.0431,0.53305,-0.5891,-0.56364,0.66053,1.1452,1.6808,-1.558,-2.5526,0.15065,-2.6037,1.145,1.1196,0.2781,0.60959,0.22707,0.35461,-0.079026,-0.2574,-0.61457,-0.46157,-0.002461,-0.002472,0.15059,-0.027944,0.22715,-0.18094,-0.079008,0.074062,-1.4051,1.0686,1.6041,0.30353,-0.74204,0.38007,0.20155,-0.30841,0.023059,-0.38498,-0.15556,-0.13,1.7061,0.78802,-0.20647,-2.527,-1.5325,0.63508,0.99205,-0.079008,0.35448,0.48199,0.074033,0.20158,0.099588,-0.28295,-0.89494,1.1707,1.1452,-2.3741,-0.9969,1.2216,0.63498,0.86457,0.073935,0.17597,1.2216,-1.1245,-4.2357,0.15055,2.5732,1.3237,0.40544,-0.15538,-0.66543,-0.94605,-0.46151,0.53314,0.099595,-0.053506,1.4256,-0.38506,-1.6602,1.2472,-0.61458,-1.4051,-0.078972,1.3747,0.32915,0.5076,-0.28303,0.3035,0.27801,-0.30855,0.27809,-0.3849,-0.12993,0.68615,2.2672,-1.7366,-4.7713,0.89009,1.6551,-0.18099,-1.1756,1.2216,1.8338,-0.33393,0.048531,0.91559,0.38003,-0.25751,0.048592,0.048506,-0.28298,-1.5326,0.35455,0.27814,-0.25748,-0.25751,-0.35961,0.94116,0.17602,0.20167,0.89001,0.66055,-0.89496,-1.864,-0.92057,0.7371,0.22692,1.3747,-0.002467,1.0431,-0.15547,-1.456,-1.3796,0.81363,1.0941,0.074081,-0.92061,-0.48702,0.12501,-0.64004,-0.81859,0.81368,-0.46154,-0.71642,-0.38499,1.3746,-0.078977,0.099491,1.1707,-0.15554,0.48203,-0.10451,0.50762,-0.23199,-0.436,0.17609,-0.97155,-0.28305,0.22697,-0.41049,-0.4614,-0.56342,0.76246,-0.58899,0.6098,0.55841,0.53305,0.2015,-0.002467,-0.18098,-0.46145,-0.13001,-0.20645,-0.25749,0.048549,-0.23201,-0.18101,0.48207,0.63507,0.32908,-0.33391,-0.46142,0.48199,1.1706,-1.1755,-2.4252,1.3235,1.5532,-1.4051,-0.74203,0.38005,0.17602,0.35468,0.53306,0.227,0.023054,0.71161,-0.76757,-0.946,0.40561,-0.48706,-0.002399,0.43112,0.023017,-0.43606,-0.92067,-1.8385,1.3747,0.58404,0.66047,0.4821,0.17606,0.50766,-0.18097,-1.2775,0.55857,0.81358,-0.283,-1.0736,-0.12999,-0.28299,0.63514,0.30355,0.40548,1.2216,-3.2411,-2.4762,0.94106,1.7572,1.145,0.99208,-0.25745,-0.66545,0.81354,0.76263,-1.7111,-0.38497,0.73706,-0.84402,-0.69101,0.8646,-0.742,-1.3285,0.96662,1.1196,-0.28308,0.32914,0.22697,0.7881,0.25249,-1.5836,0.17605,0.20161,0.4311,-0.43593,-1.5326,1.7318,0.35451,-1.4816,0.431,0.63509,0.55863,-0.793,-1.354,0.27801,1.0176,0.83903,1.6296,-0.28296,-2.1446,-1.7112,0.73714,0.68611,0.73708,-0.41041,-0.74204,0.96653,0.022968,-1.9151,0.27814,0.25263,0.66065,0.17605,-0.10457,1.2981,-0.8951,-2.1445,0.32906,0.86461,0.60956,0.99215,0.22708,0.55861,-1.7366,-0.25751,0.25244,0.20161,0.4056,-0.027895,-1.252,-1.15,0.89006,1.1962,0.20156,0.32901,-1.2776,-0.89509,0.17601,-0.13001,1.0941,1.1451,0.96664,0.048622,0.63523,0.68616,-1.0735,-1.7111,-0.46152,-0.13002,0.86453,0.55857,-0.53798,-0.46154,0.66064,0.40549,0.35461,-0.38505,-0.69111,0.45659,0.27824,0.074051,-1.099,0.25257,2.8282,0.12509,-4.8222,-3.7257,1.8591,3.6953,1.2216,1.5532,-0.002534,-1.3286,0.22702,1.0431,-0.25746,-2.2466,-0.33394,0.099546,-0.25754,0.22703,0.53306,-0.793,-0.61451,1.3747,0.22708,-0.38504,1.1196,0.48208,-0.56359,0.023072,-0.002387,-0.41053,-0.1299,1.3237,-0.86952,-2.0936,0.96651,0.074013,-0.002394,0.15049,0.15052,-0.38496,0.35456,0.99212,-1.2265,-0.283,-0.38497,-0.99712,0.78804,0.89001,0.99215,-0.38496,-0.33395,-0.41049,0.48206,0.35459,-0.61447,0.91565,1.2726,0.48197,-2.6801,-2.3996,0.15057,0.71149,2.3692,2.1398,-0.2319,-1.3796,0.32904,0.55858,-0.56354,-1.1756,-0.12991,-0.94601,-0.41052,0.50756,-0.002461,0.81344,1.3237,0.66069,-1.966,-1.5326,0.73697,0.30355
2,1.7063,-0.92074,-2.2211,-4.8992,0.1762,0.66041,0.81348,1.7316,0.25255,-0.078923,-0.89499,-3.2409,-0.35937,1.4001,1.2471,1.6041,3.2617,-0.86966,-2.6547,-0.23194,1.8337,0.9666,-4.0826,1.9357,-1.8386,-5.0009,0.99212,2.7007,2.7771,-0.35958,-0.079057,-0.053573,0.20163,0.40585,-0.1044,0.20142,0.023017,-2.1702,1.2728,1.2727,-1.5071,-2.0935,-0.33416,1.5785,0.4565,-0.46135,2.4458,0.30371,0.48218,1.0177,-0.53797,-0.69103,-0.33405,-0.99713,-0.002644,1.604,-0.43609,-1.3541,-1.762,-0.63989,0.50762,1.1197,0.48206,-1.0735,-0.2574,1.6551,-0.002528,0.176,0.4564,1.4,1.6042,-3.241,-2.4503,-0.92038,0.43098,2.4965,2.063,-0.13002,-1.456,-0.99699,0.1252,0.71156,1.0686,-0.66555,1.1705,1.0686,-3.853,-3.1392,-2.1956,1.0942,2.3183,2.3182,1.9611,-0.43607,0.89002,-0.38493,0.023078,0.48199,0.68598,0.099583,-1.9405,-3.0115,-0.81846,-0.1299,-0.38525,0.71158,1.4769,2.6244,-1.2011,-0.18103,0.6094,-0.30868,0.32907,0.2016,-0.41056,1.0177,-0.74203,0.04861,-1.4815,0.099528,-0.99703,-2.4251,-0.66567,3.8995,1.3745,-2.6802,-1.4305,1.4769,2.3693,1.4001,-0.079118,-0.3342,0.83906,-2.068,-4.3123,-1.456,1.5787,1.5021,1.3746,1.2726,-0.61445,-0.94603,-1.0989,-0.41072,3.1346,2.0376,-0.5635,-3.3941,1.8081,-1.6601,-1.8132,2.2674,0.7881,0.68608,-0.53807,0.83899,-0.86965,-3.2413,0.94122,2.0633,0.76264,1.247,0.099442,-3.1647,-2.0425,0.25265,0.48197,1.0686,3.5933,-0.18098,-2.2721,0.17601,-0.69107,-1.3286,0.96657,3.3129,-1.1501,-3.9045,-0.76741,1.3237,0.5331,0.83921,-0.81875,0.60962,1.5786,0.58401,-0.33409,-0.12994,0.50759,0.099735,-1.8386,-0.20647,0.96671,-1.1502,-1.2009,1.145,-0.30858,-0.10437,2.4457,3.6445,-3.9297,-7.4234,2.5986,3.2105,2.5985,-2.2721,-0.41039,2.0123,-0.86928,-1.0225,-0.002461,0.25249,1.5021,-0.10459,-3.5728,-1.2266,2.3693,0.17611,-0.793,0.17604,-0.33415,-0.002516,0.22708,2.1907,0.48219,-2.0937,-0.538,0.66068,0.6607,-0.13007,-0.76773,1.7064,1.1706,-1.4305,-2.5527,0.78808,1.043,2.1651,-2.2721,-4.2103,0.89013,1.3237,-0.35949,1.6806,1.2982,1.0687,-0.56366,1.2728,-0.2576,-6.327,0.45658,0.12502,0.32898,1.5787,3.0581,-1.3542,-0.92072,1.247,-0.81848,-2.4508,0.7626,2.0124,-0.53796,-1.5836,-0.43596,-0.002485,0.17605,0.89007,1.6806,-1.7875,-2.2721,1.4256,1.0176,0.15057,0.45664,2.8029,-2.7823,-3.0372,-0.23208,1.349,0.431,0.048512,0.32905,1.8082,-1.8897,-3.3431,1.0432,-1.4051,2.2927,2.0121,1.3747,-0.35932,-2.3995,-1.1754,1.1705,1.1195,0.94111,0.7882,-0.46162,0.12505,-1.5327,-0.99691,-2.2469,0.6609,-0.5379,1.6043,1.145,0.35445,1.4255,0.40547,-3.2668,-0.69101,0.3292,1.9613,1.1707,-0.35959,0.71176,-1.6347,1.9357,-0.53803,-3.9297,0.074167,2.6751,3.4146,-0.74206,-4.0318,-0.6399,1.1707,1.6042,-0.30848,-0.43599,0.099546,2.267,-0.71646,-3.4709,0.3547,0.04842,0.32909,2.2162,3.7463,-3.1901,-5.4087,0.22698,1.1961,2.4967,0.89015,0.50764,0.2015,-0.64009,-1.6602,-0.05347,0.45664,0.40558,-1.0736,-0.691,-2.5272,-0.58911,1.7571,3.4405,0.38019,-1.4561,-2.9352,0.71156,1.6808,-0.13015,1.5275,-0.23196,0.4822,0.88992,-0.41054,-4.0062,-2.2721,1.7827,1.3746,1.1195,0.099657,-1.8131,0.074081,0.81354,0.68608,0.3545,0.22717,0.45669,0.12485,-0.81838,0.17611,-1.3032,0.17597,2.8538,-2.731,-1.7877,0.48209,1.2214,0.27799,-0.053544,0.91554,0.81371,0.20169,-0.10414,-1.303,-1.6856,0.2524,0.5585,1.4257,-0.28303,1.6041,-1.2265,-4.6183,0.48206,1.9356,1.3236,1.4511,1.2471,-0.58907,0.86486,-0.81859,-0.25757,0.32911,-1.1755,-1.8131,0.074142,0.58395,1.5531,-1.4306,1.2216,0.02298,-3.3432,-1.1756,0.9921,0.25255,2.3437,2.4458,0.40562,-1.303,-1.099,-0.71648,-0.41053,1.0431,-0.61462,-1.048,0.25246,0.6607,1.0432,3.0832,0.074038,-7.1939,-3.3433,2.1906,3.5425,1.6295,0.83906,0.66061,0.048678,-1.2012,-1.0481,-0.23194,-0.30846,-0.053476,-0.61448,-1.0225,-0.71647,-0.20628,1.3491,1.4001,1.9102,1.9101,-2.5781,-3.9552,-1.8896,2.0121,1.2215,0.76248,2.1141,0.43115,-2.3993,-0.56345,0.45649,-0.20663,0.35445,-0.02792,-1.4816,0.30365,-0.30855,1.1195,-0.027938,-0.12995,-0.12997,-0.38509,1.936,0.86469,-1.1501,-1.6601,-1.7111,0.91551,0.17607,-0.41057,0.73706,0.55859,0.63507,0.17598,1.1706,1.1962,-3.7257,-3.7766,3.1344,0.50762,0.20134,1.9611,0.07416,-0.53804,-0.41046,-1.8385,-0.6656,0.048317,-0.53803,-0.76753,2.3947,0.22711,-2.5016,-0.002443,-0.15535,0.12512,1.247,-0.33411,0.25251,0.55844,1.6041,2.7007,-0.589,-4.3886,-0.61442,-1.1755,0.27803,0.27802,-2.0426,-0.46153,4.3838,1.043,-4.5674,0.96659,2.1399,1.5276,0.58397,0.60971,0.30361,-1.1501,-0.053519,-0.181,-1.1756,-1.2521,-0.51257,-0.23192,0.86471,-0.53791,0.2271,1.4001,1.5529,3.6188,-1.252,-6.0974,0.099644,0.99213,-0.002399,0.55857,0.78802,-0.20672,1.0687,0.78808,-0.76756,-1.2776,-1.6856,-0.18092,0.3291,3.1343,-0.41056,-0.84393,0.022974,-2.6291,-0.76755,1.1707,0.89009,0.38006,-0.56356,1.7572,0.53308,-0.35955,-1.3542,-0.20652,0.63518,-0.12989,-0.84405,0.30366,-0.64007,-0.10454,-0.33401,2.1907,0.737,-0.48692,0.074026,-1.0224,-2.0936,-1.456,1.3491,1.3746,1.298,0.35451,0.38,0.86463,0.53303,-0.63996,-0.33378,-2.2212,-0.3339,0.35458,-0.18095,0.58403,0.91575,0.86454,0.68601,-0.69105,-3.0628,-0.23199,1.6297,2.3946,0.04861,-1.7111,-0.538,0.81359,1.4512,0.17603,-0.58902,-0.18082,-0.15556,-0.38499,-0.895,-1.1246,0.1761,0.86454,0.89004,-1.5071,-0.69111,0.32896,1.0432,0.73714,0.60963,-0.23197,-0.002497,0.15058,-1.6092,0.099644,0.2781,-0.002394,0.35467,0.048555,1.9357,-0.5891,-2.1192,-0.13015,0.40551,0.89016,-0.41044,3.3893,-0.027882,-7.8314,-0.53806,1.1961,1.5531,2.3182,1.5787,0.30346,0.63499,-0.58883,-1.762,0.81373,-0.41058,-1.9917,-0.48709,0.32904,0.12501,-0.18095,0.66073,0.27805,0.43104,0.35463,0.048561,-0.74214,-0.43601,0.48209,1.0431,-1.099,-0.43597,0.48213,-0.28297,0.32913,-0.053531,0.63507,-0.48703,0.35449,-0.61457,-0.41042,0.94115,0.20159,0.6352,0.43101,0.15048,-1.3542,-0.25753,-0.84406,-0.23198,0.48206,-0.1554,-0.053433,1.7317,-0.002394,-0.71655,-1.0226,0.074062,0.073965,0.20153,0.66068,0.35451,1.3746,-1.0226,-2.6802,0.48216,0.86447,0.30347,0.15076,0.71156,1.7316,-0.92071,-3.1135,-0.20638,-1.6091,1.5532,1.4257,0.89008,0.40557,0.68598,-0.20643,-1.9406,-0.12989,-0.28297,-0.25753,0.55866,0.38001,0.15047,0.35461,-0.5891,0.55866,0.20138,1.1195,-1.864,-2.2211,0.35465,1.0686,1.8591,0.83918,-0.56354,-0.28302,0.86472,-1.2267,-1.0226,0.074136,0.48219,-0.89502,-0.61455,0.66051,0.40553,0.45656,1.2471,-1.2266,-2.7311,0.099479,0.5842,1.2471,-0.20649,-1.558,1.9612,1.655,0.40547,-0.33413,-0.002461,-0.2575,-1.0991,0.53331,-1.7621,-1.2266,1.1451,-0.23201,0.53307,0.9666,1.8081,-0.76752,-2.7057,-0.58898,0.53307,2.7772,1.8337,-2.1956,-1.2519,-0.61455,1.1451,0.81366,-0.25745,0.5075,1.3492,-0.18101,-0.41029,-2.7823,-0.35951,1.0686,1.0175,-1.8895,0.58413,-1.915,-0.38492,2.1652,2.1396,-0.2065,-1.9151,-0.181,1.4767,0.30364,-0.33404,-0.002546,-0.23203,-0.30847,-0.35953,0.40557,-0.1299,0.2525,0.32909,-1.5836,-0.86946,0.50759,-1.4304,0.35453,1.0685,2.2927,-0.20653,-0.86951,0.50755,0.22709,-0.56349,0.63507,0.27812,0.40561,-0.69125,-0.61452,-0.002363,-0.94598,0.32915,-1.3541,-1.2011,-0.33408,0.86469,4.2818,-0.13003,-2.7311,0.50762,0.60954,1.4256,-0.12995,-0.66536,0.099534,-0.02798,-0.20658,0.099442,0.20169,-1.4051,-0.7931,0.35453,-0.99706,0.17601,0.32902,1.0178,1.2982,0.023047,-0.25751,-1.1501,-1.2776,0.099485,-0.28305,1.7316,0.17607,0.55866,0.099559,-0.66555,0.86469,0.6607,-0.41053,-0.35957,0.60964,-1.9662,-1.0479,-0.05347,1.4256,1.1196,-0.74203,-0.23192,1.9866,-1.7112,-2.0682,1.7317,1.4512,1.2727,-0.027944,-0.66551,0.68612,-0.58912,-1.354,-0.053275,0.099583,0.58405,0.12496,-0.23207,-0.35967,0.125,-0.30838,0.68615,0.68622,-1.4816,0.074051,-0.00254,0.63503,-0.07891,0.73718,1.3492,1.9611,-1.405,-5.5109,-0.3084,0.89003,0.02298,2.6243,2.7262,-0.71661,-2.0426,1.4512,0.73712,-1.9406,0.15056,0.22697,-0.89511,-0.25726,0.20156,0.86454,-0.23201,-1.1245,0.94122,0.71165,-1.4306,-0.69122,0.45644,0.38014,0.35454,0.533,0.4056,0.73718,1.0687,-0.027901,-0.56352,-0.53808,-0.23188,-1.4306,-0.25754,0.78818,0.99212,0.55856,-1.5836,-0.48689,0.27819,0.83909,0.048438,-1.5837,2.1396,-1.6346,-1.3031,1.1962,1.2471,0.074026,-0.35943,0.45667,0.60959,0.0485,-1.8385,-0.76755,1.5276,-0.8695,1.1197,1.1705,1.1195,-3.2922,-3.8022,1.1706,1.9868,1.3491,0.53298,1.1197,-1.5327,0.58417,0.63515,-0.20656,-0.69113,-0.13002,-1.6855,0.048592,2.1398,-3.7512,-1.3541,2.9557,0.55849,-1.6857,1.3237,1.4767,0.15056,0.15047,0.30359,-0.97153,-1.9662,-0.053268,0.50768,-0.079124,0.17598,0.83901,0.737,0.45659,-0.027938,-1.405,-1.7112,-0.61436,0.12505,2.3184,1.0432,-1.8897,0.40542,0.68586,-1.0225,0.53308,0.55851,0.32925,1.4256,0.074038,-2.2466,-1.048,1.0431,1.5276,-1.9151,-0.895,0.048536,0.7116,0.35447,0.27805,1.4001,1.0687,-0.84405,-0.48696,-3.1391,-1.2266,2.2162,0.55854,0.60963,1.3747,0.48201,-0.33407,-0.94596,-0.1045,-0.61447,-1.2265,0.22705,0.58422,0.40554,1.3491,0.99213,1.1961,-0.97146,-2.9607,-0.18106,0.76265,1.2217,1.3491,-0.61451,0.48203,-0.41051,-3.0627,1.1196,0.6351,-0.028042,0.3801,0.17609,-0.12997,0.99224,0.073946,-0.10443,-0.7165,-0.25753,-0.38511,-0.48706,-0.002588,-0.20652,0.45661,-0.51246,-2.68,-0.12995,1.2472,3.3127,0.66055,-1.6601,0.45658,0.68605,0.15064,0.66057,-1.0736,-1.5071,0.8901,-0.002472,-1.5836,0.20153,0.48209,-0.027969,1.1197,-0.10442,-0.89509,-0.002503,-1.0226,1.5279,0.63513,-0.43613,0.022943,0.53304,0.38002,0.76258,-0.12998,-2.7312,-0.20651,-0.56352,0.58414,-1.4306,1.2727,2.9303,2.0633,-2.4251,-1.2775,-0.23197,-0.20655,-0.33409,0.12497,0.5075,-0.74204,0.27808,-0.53798,-1.6854,0.68593,0.43104,1.7316,0.86466,-0.18098,0.227,-0.33396,-1.507,-1.252,1.2726,0.89004,-0.7931,0.53301,0.32905,-0.84392,0.71159,0.50757,0.89009,-0.10443,-2.1955,-1.0225,0.30352,0.73712,0.58403,0.35451,0.27803,0.15049,0.12504,0.25262,-0.48689,-0.23193,-0.92052,-0.02809,0.5586,-1.0481,-0.002307,0.30343,1.1196,0.81359,-0.18097,-2.1191,0.50749,1.1706,-0.41048,1.1709,0.30358,0.38008,0.15047,1.6551,-1.7366,-5.1283,-1.1501,0.81354,2.6498,-0.10466,1.2726,0.25261,-0.18091,0.30357,2.1398,-0.58897,-3.3687,-0.25754,-0.33416,0.8391,1.6297,0.58415,-0.053427,0.73712,0.073965,-2.1191,-0.002461,0.53299,-0.02795,-0.64001,0.60962,0.78808,1.2727,-1.15,-1.507,-0.79308,1.3235,0.60943,1.0176,0.89012,-0.002436,-2.1698,-0.81856,-0.10447,0.099357,0.81357,1.8591,-1.201,-2.7566,-0.053573,1.5022,0.83912,-0.48703,0.55867,0.50766,0.584,0.38012,-3.5218,-1.0227,0.94096,1.3747,0.76263,1.0432,-0.43597,-0.56349,0.40555,0.09954,0.099503,0.55856,-0.43596,-0.23195,0.30362,-1.4305,-2.5016,-0.10449,2.2162,-0.2065,0.023145,0.94102,-0.43619,-1.8896,0.81361,2.8537,-0.05339,0.074149,-0.30846,-0.56356,-0.48695,0.43105,0.68607,-0.283,-0.58896,-0.35945,0.60959,-0.15535,-1.7877,-0.20652,-0.23207,0.94103,1.1452,0.022907,-0.07883,0.66074,0.81376,0.32897,-0.41066,-0.7931,-0.86955,-0.51252,0.048567,0.099515,0.71168,1.1963,0.3802,-1.2521,0.38001,-0.13007,-0.10456,0.50763,-0.35962,-2.017,-0.20648,0.8391,0.76259,-0.053451,-0.56356,0.07391,2.3694,-1.2522,0.227,0.099503,-0.64008,-0.51247,-0.5124,0.40568,-0.20646,0.15047,1.1196,0.20148,-2.3486,0.27803,0.22704,0.15059,0.40555,0.20158,-0.027931,1.3491,-0.15549,-0.1299,0.023047,-0.84398,-0.79307,0.17613,0.074069,-2.8586,-0.74218,1.8336,2.2163,1.2216,0.53308,-0.20647,-0.58903,-0.385,-0.28292,-1.0481,-0.66551,0.023023,0.073984,0.15055,0.1505,0.17607,0.023047,-0.078941,-0.10449,0.12508,-0.053464,0.099521,0.099515,-0.18104,0.8391,1.8847,-1.7111,-1.4811,-2.4763,1.1195,0.048293,2.4203,0.43095,-1.9917,0.53299,1.8336,-0.58892,0.32913,-0.69094,-0.97141,0.3546,0.96659,0.76256,-0.46153,-0.25751,-0.6145,-0.58897,-0.33398,-0.76752,-0.58899,0.30351,0.63503,1.4001,0.022919,-0.053519,-0.81843,0.40568,0.63517,0.48205,0.45658,-1.3797,-0.18109,0.60967,0.37999,-0.002448,0.048487,0.25274,-0.92066,-0.6655,0.63517,-0.76744,-0.053409,0.45654,0.50757,-1.3031,0.83911,0.63507,0.32896,0.43099,-3.4197,-0.18093,1.7574,0.20157,2.6496,-1.5837,0.48214,0.20149,-1.3031,-1.3796,0.58403,1.2472,0.30355,-0.84391,-0.28282,0.15058,0.25251,-0.15548,0.45658,0.25257,-0.12994,-0.053488,0.099473,0.53308,-0.23205,0.20153,-0.38497,-1.9915,-0.35952,1.0431,-0.028005,0.099485,1.2217,0.78812,-0.35951,-0.71658,-0.053555,1.5277,0.43107,-2.425,-1.252,1.0433,0.86443,1.5531,0.63491,-0.25754,-0.25741,-0.053427,-0.946,-0.2064,-1.4051,-0.58894,0.2271,1.5532,0.07394,-0.79307,2.6241,-0.99705,-0.4104,-0.58899,0.60965,0.45644,0.32912,0.25246,-0.10444,0.09954,0.073959,-0.99705,1.5533,-0.46151,-1.0735,-0.20638,0.99214,1.3491,-1.2521,-1.9661,-0.43602,1.3746,-0.46164,-0.38495,1.6552,2.6242,-0.53804,-3.5982,0.60962,1.3236,0.73707,1.9613,-0.002448,-3.0879,0.15048,0.07394,-1.4306,0.68599,0.12489,0.25252,0.50763,-0.15549,-0.07885,-0.027938,-1.7111,1.0431,-0.28292,-0.25741,1.0687,0.81362,1.1451,-0.002565,-1.8897,-1.2266,3.0576,0.40558,-1.7875,-1.15,-1.8641,0.68618,1.8846,1.655,-2.2467,-3.2921,1.8083,1.5021,0.58393,0.89014,-0.79314,2.4203,-0.99718,-2.2465,-0.84403,0.78821,0.1507,-0.12982,0.48202,1.196,-0.028114,-0.9206,0.3034,-1.354,-1.711,1.2727,2.0124,1.5531,-0.23202,-2.1192,0.048512,0.32913,-0.25744,-1.2521,-1.6856,0.58416,1.7316,0.58414,0.9666,-0.20666,-1.5582,-0.58916,1.5278,-1.1754,-1.3029,1.9868,0.074118,-0.71659,0.7114,0.073965,0.32904,-0.43609,0.15048,1.0941,-0.51243,-0.232,-0.79296,-1.0478,0.43117,-0.58902,0.96659,0.94104,-1.2266,0.53303,0.71157,-0.69094,-2.068,1.0175,0.63503,0.76256,0.58409,0.074038,-0.28295,0.78817,1.3236,-1.2265,-3.4198,-0.69086,0.45669,0.38006,0.30358,0.83896,0.38001,0.96666,0.78802,0.68619,-0.74209,-2.3486,-1.7365,0.83909,0.32906,0.83911,0.27808,-0.053409,0.022974,-0.89509,-0.33391,-0.10443,0.20154,1.2726,1.4257,0.07383,1.2217,0.45661,-2.3996,-1.9404,0.43105,0.30369,-0.51248,0.73709,1.2216,0.58393,-1.6602,-2.1193,1.4765,0.4311,-0.74196,0.125,1.7318,1.1451,-0.33399,-0.53796,0.38011,-0.23203,1.9612,-1.9406,-7.3215,1.0686,0.737,1.604,1.4001,0.66047,0.4056,0.12503,-0.28286,1.0943,2.5733,-2.7312,-4.7713,1.1961,1.0939,0.15054,-0.25742,0.35458,2.0377,0.27812,-3.0627,-0.15552,-0.053586,2.1142,1.6808,-0.30847,-0.66548,-0.74201,-0.35959,-0.41055,-0.2065,-0.35948,0.66057,1.0687,-0.35955,-1.5072,-1.0223,-0.15546,0.63517,2.0632,1.5024,-1.4306,-1.354,1.9864,0.71152,0.83903,0.60952,-1.4561,-1.609,-0.53804,-1.4816,-0.30842,1.2217,1.2726,0.94113,0.099564,-0.53804,-0.053525,-0.8951,0.48213,-2.3486,-2.8077,0.584,2.1907,1.6807,1.2983,1.0943,0.73712,-1.0991,-1.2267,-0.69121,0.66059,0.37999,-0.30832,-0.053421,-0.41054,-0.94605,-1.711,1.8082,0.02301,-1.558,-2.9352,0.91559,3.0068,1.2982,1.6296,0.73703,1.5786,-0.35939,-0.71652,-0.66561,-0.89488,-1.5583,0.22723,-3.6493,-2.4508,3.5933,-0.13019,-0.58883,1.9104,1.6808,1.7572,-0.74218,-0.41072,0.22694,-0.10457,0.45656,-0.92048,-3.0625,-0.15545,0.55871,0.60962,1.2471,2.1397,0.3291,-4.1848,0.71159,0.94104,-0.56351,0.55864,1.757,2.1652,-3.7257,-0.8696,1.4256,1.0177,-0.181,0.023188,-2.0171,-0.33405,1.8081,1.4256,-0.56343,-2.6545,1.1961,0.45648,1.0175,0.023059,1.0941,-0.86954,0.45661,-0.053488,-3.3177,-0.94605,1.2471,0.12504,0.71162,1.8591,-0.078941,-2.3486,0.55862,1.9869,-0.74211,-0.20653,1.7572,0.81343,-4.1593,-3.5982,0.94102,1.0685,2.4458,0.5076,-1.048,2.2417,1.0175,-2.2211,0.25263,1.5276,-0.51245,-0.053537,-1.5582,0.27792,-1.9406,-2.6288,0.83911,2.3691,1.7062,0.32907,-0.33398,0.25257,0.50762,-0.5125,0.02301,1.0431,-0.94611,-2.6036,0.17601,0.40554,1.1962,-1.4816,-0.84409,2.1907,2.2926,0.66061,-3.4962,-1.8896,1.6551,2.3693,-0.33401,-2.8587,-0.028018,0.63522,0.8391,2.2162,2.2417,-3.0372,0.17608,-0.30851,-1.3795,0.58416,1.0177,-1.8642,-3.1902,1.6295,1.6296,-0.028011,0.71149,-0.28302,1.5535,0.53301,-0.41054,0.27818,-1.7622,2.0376,0.12499,-5.2303,-0.46139,1.5787,1.5021,1.2981,1.2471,-0.028072,0.048665,0.15054,0.20149,-1.2521,-0.64011,-1.4561,-2.8333,0.55861,3.3639,0.73721,-0.23194,0.73707,-0.86964,-4.1338,1.298,1.1196,-0.33396,0.66064,0.81364,0.35458,-0.10455,1.0687,-0.79309,0.25252,-0.86953,-1.2775,0.55861,-0.58902,-1.5581,-1.0481,0.45655,0.788,1.8847,2.4203,-0.66563,-1.2773,1.8847,-3.6748,-3.2923,1.6296,0.3545,1.9357,2.1907,-0.002546,-0.79294,-1.3797,-0.002418,0.78813,-0.48692,-0.028018,-0.30844,-0.53806,0.30351,0.66069,-0.92049,0.278,0.20146,0.15054,-0.41045,0.278,0.78799,-0.10448,0.32913,0.27801,0.12509,-0.81849,-3.1391,-1.813,0.81356,2.5987,2.2926,0.91545,-1.2265,-1.9407,-0.51259,1.1707,0.4311,-0.8696,0.35465,0.66067,-0.79321,-1.8895,-1.6093,1.8337,0.35453,0.074149,-1.4562,0.30368,1.0431,2.2673,2.0888,-0.89514,-0.48713,-0.66562,0.37999,0.074149,-2.6545,-0.3594,1.5276,0.86451,-1.4561,-0.33406,0.91548,-0.38499,0.3802,-0.23188,0.22711,0.91561,0.71156,-0.027827,-1.4815,-0.002588,1.2726,-2.4251,-1.3031,2.3437,0.5587,-1.0482,0.86456,1.0175,0.099406,1.1197,-0.84403,-0.2829,-0.41048,-1.3542,0.30361,3.2107,-0.69091,-6.7348,-0.86942,1.6551,1.655,0.45645,-0.002497,2.8794,1.1706,-0.99692,-0.56345,-0.28294,1.094,-2.0938,-2.6546,1.0687,0.94121,-0.10447,-0.13,-0.35962,-0.12989,0.5586,1.2471,0.58413,1.7826,0.073965,-3.0627,-1.6856,0.68616,1.9612,1.1451,-0.69086,-3.8787,-0.18091,3.3382,-0.84416,0.45656,0.048396,1.4512,0.71163,-0.028042,-1.6091,-0.58894,0.25253,-0.1046,0.22701,-0.33396,-0.46145,-0.10444,0.96672,0.45668,-0.69115,0.78811,0.37991,0.12499,1.4001,-2.3231,-1.4815,1.9612,0.3291,-1.5326,-1.099,1.2471,0.15051,0.68611,0.53314,0.60966,-0.33401,-2.3741,-0.51248,0.839,1.4256,0.048415,0.81354,0.76279,-0.86955,-0.81846,-0.41058,-0.35954,-0.86939,0.35454,0.30345,0.73709,1.4256,0.81357,-0.56349,-2.0936,-0.56348,0.38002,0.25252,1.5022,-0.94608,-1.354,1.0686,1.1706,-0.97152,-0.48702,-0.053458,0.27815,-0.10437,0.91567,1.3745,-2.1446,-2.0936,0.81349,1.196,0.27798,0.45666,0.27821,-0.38489,0.58405,-1.5837,-2.1446,0.22702,0.78807,-0.53813,1.7573,0.55869,0.43118,-0.30847,0.58408,-0.3595,-2.1957,0.176,0.50746,3.1088,-1.048,-1.7365,0.48208,-0.84405,-0.61451,0.25252,1.9869,0.63495,0.20164,-1.8642,-2.0682,1.0432,0.12499,0.22704,0.89007,0.20158,-0.86945,0.37999,0.50757,-0.002516,0.50762,0.5075,-0.10449,-0.5888,0.329,0.099564,-0.002448,-0.97166,-0.6401,0.71163,2.2417,-1.3285,-2.3231,-0.3594,-0.86951,1.1197,3.3892,-0.15557,-0.97144,-1.6091,0.83909,0.25257,0.3036,-0.58919,0.2781,0.73714,-0.66558,0.58428,-0.56351,0.83908,-0.20663,-1.9152,-0.002405,-0.23193,0.7116,0.96666,0.02287,0.5331,0.074081,-0.027987,-1.558,-0.61449,0.35458,2.2162,-0.53806,-0.7165,-0.079014,-1.1245,0.60957,0.63505,0.099515,0.022998,-0.002381,-0.64,0.53301,-1.6601,-1.762,1.3747,1.5022,0.099399,0.73703,-0.71654,0.074051,-0.18103,-0.053372,-0.15545,0.17606,1.6041,0.45656,-1.8386,-1.2775,-1.2775,-0.58899,1.7827,1.8847,0.30346,-0.64007,1.094,0.4056,-2.1956,-0.38496,2.3437,-0.002485,-0.12994,-2.1445,-2.0682,1.1452,0.12499,0.83909,1.2982,0.81356,-0.92056,-1.6346,-0.027998,0.66061,1.2472,0.76253,-0.46151,-1.4307,0.45648,0.63511,-1.0224,0.60977,0.2781,-0.33408,-0.8951,0.43112,1.451,0.15049,-1.099,-0.6145,-0.15553,0.12514,-1.5836,0.71162,0.58407,-0.48689,1.2216,0.27805,-0.56357,0.58401,-0.51265,0.048536,-0.23188,0.91564,0.50755,-0.18086,-0.79302,-1.2265,1.2726,0.78802,-3.0881,-0.71659,-0.92049,1.7317,0.71153,0.73698,2.8282,0.50754,-0.30843,-0.97159,-0.5124,-1.0226,-0.002418,-0.15545,-0.002516,0.86469,-0.15535,-0.078996,-2.3996,0.1505,1.3236,1.043,1.1451,-0.84392,-0.053439,-0.76755,0.32897,0.45655,-0.58901,-0.46141,-1.201,0.30358,0.45657,0.8391,0.07402,-0.028018,-0.027846,-0.30848,-0.053562,-1.048,0.43118,0.15049,0.25256,0.023023,0.022956,-0.002461,0.099491,-0.28313,-0.38505,0.81389,0.48217,-0.12996,-0.41056,-0.81851,0.32931,2.5222,-0.66556,-3.3178,1.4765,-1.6857,-0.43605,2.3947,0.25249,-0.18092,-0.10437,-0.61443,0.17609,0.73714,0.30366,-0.30838,1.4512,-0.74204,-3.7003,0.58396,1.5277,0.099454,0.71157,0.25249,0.50761,0.6605,0.91556,-2.9607,-2.6547,1.0686,1.2216,-0.63996,0.38011,0.73712,0.78814,0.27809,-0.33399,-0.25749,0.022961,0.09954,-0.48706,-0.12998,0.584,-1.711,0.099626,0.30355,-0.10445,1.0431,-0.028029,0.48209,0.83914,-0.64007,-1.8385,0.50766,2.0122,0.60952,-0.30849,-0.8185,-0.58898,-0.10447,0.12504,0.73722,0.12502,-0.5891,-0.25751,0.32905,0.83911,-0.38491,-2.1191,0.073989,0.048451,0.40555,0.73703,1.1963,0.35461,-0.23203,0.43106,-0.43598,-1.2265,0.55855,-2.9861,-0.25736,0.91551,1.4256,0.635,0.71162,-1.2266,-0.053451,-0.002448,-0.94603,-0.002423,0.048512,0.023065,0.15051,1.1451,0.48203,0.40559,0.58407,-1.864,-1.1499,0.12497,0.40553,-0.079106,-0.079014,0.7626,1.1198,-0.30847,-1.354,-0.74211,0.76262,-1.1757,1.4512,1.7062,0.96668,-0.79297,-1.4815,0.22704,-0.10456,-0.64008,1.7061,0.5075,-2.7311,-0.46145,0.89012,0.15052,0.68619,0.5587,-0.64008,0.68609,-0.84412,0.58424,-0.38516,-0.38514,0.25254,-0.23197,0.27811,-0.23193,-0.28294,-0.30849,-0.436,-0.002497,0.45656,1.2216,0.76261,-1.3031,-0.79304,-0.027987,0.25253,1.0941,0.6096,-2.7056,-0.35951,1.3746,0.83911,0.023047,-0.027938,-0.12995,-0.86957,1.5022,-0.41049,0.17604,-0.053488,-1.1755,-0.10449,-0.10461,0.76266,0.20153,0.022998,-1.252,0.43123,0.17597,0.53306,0.50757,0.099515,-0.84397,0.25256,-0.38517,0.35458,-0.33393,-0.38503,1.3236,-0.12999,-0.002363,0.38001,-0.94601,-0.027944,-1.6091,-0.12995,-0.56354,-0.15543,0.86461,0.20162,1.3747,0.45639,0.32901,0.30363,-0.64008,0.99212,0.4821,-1.3795,-3.445,0.1506,1.8336,1.0941,0.25257,0.22706,-0.38506,-0.30851,-0.027962,0.074038,-0.38498,0.22713,0.27802,0.30358,-0.6402,-0.35948,-0.74204,0.55861,0.25274,0.60959,1.9866,-1.6856,-3.9553,0.78836,2.114,2.1651,-0.25741,0.60969,0.099454,-0.86953,0.099503,0.25267,-0.20652,0.35454,-0.027956,-0.078959,-0.12996,-1.7621,-1.2265,0.1507,-0.71661,1.6807,1.5786,-0.89513,-0.5891,1.1707,1.3746,-0.15546,0.22706,-0.20656,-0.12985,0.023029,-0.3849,-0.71646,-0.48702,1.1454,-0.35967,-0.51262,0.71185,0.09954,1.4766,-0.33405,-0.002577,0.38,0.7372,-1.4051,-0.99697,-0.99701,-0.86952,0.96669,-0.20644,1.8592,0.50747,-1.6091,0.278,0.76256,0.45648,0.63509,-0.07885,0.45683,-0.6145,1.2216,-1.2012,-4.2359,-0.79316,0.12504,1.2981,2.3947,0.43138,-1.3285,0.099595,0.27803,0.53299,0.32899,-0.61463,1.4258,0.15057,0.27806,-0.56339,-2.5527,-0.23199,1.2472,0.35452,1.3236,1.6552,-1.405,-2.1191,-0.74203,0.533,0.99206,0.20151,-0.89502,0.4311,0.20156,-0.028047,0.58412,0.99224,-0.43605,0.30352,-0.71642,0.22715,0.40558,-0.15552,-0.20651,-0.20656,-0.43612,0.58419,-0.46154,0.048598,-0.76748,-1.5326,0.71149,0.99221,1.7571,1.0432,-2.9097,-0.46154,0.76259,0.30344,0.58416,0.53313,0.17604,0.04861,-0.35949,-1.0736,-0.76756,0.048512,0.099613,0.40555,-0.027944,-1.1756,0.12499,0.38002,1.3236,1.1196,-0.53798,-0.76755,0.25258,-0.18097,-1.4305,0.25253,0.45653,0.17606,0.17603,0.50755,-0.79297,-0.2575,0.20162,0.53304,0.60957,-0.002387,-1.15,-1.2775,0.76261,-1.6346,-1.0991,1.3746,1.0176,-0.69103,1.0431,0.66055,0.074044,-0.079021,-0.41059,1.0434,-0.10444,-0.53793,-0.64003,0.30363,-0.76753,-0.181,0.35458,0.30352,-0.30855,0.22691,0.83915,0.02309,-1.8131,-1.5836,1.5023,0.78807,0.55858,1.4511,-0.38504,-1.9406,1.3492,0.76256,0.22732,-1.2776,-0.61452,0.27797,-0.71653,0.40552,0.8136,-0.053378,-0.15551,0.45649,-0.58901,-0.76761,0.53324,0.45664,0.073935,-0.33408,0.12493,0.68614,-0.20641,-0.38497,0.8647,0.53311,-0.58907,-0.8186,-0.053421,0.12502,-1.0226,0.71171,0.89002,1.3237,-0.74204,-3.7257,0.48211,1.0176,1.0432,-0.74206,-0.20666,1.4,2.0633,-1.6601,-1.7366,-0.18097,0.3547,0.17602,0.99207,-0.2066,-0.028011,0.3036,-1.0735,0.099497,1.375,-1.5582,-0.35954,-0.33401,-0.028085,0.58407,-0.027931,0.22705,-0.079002,-0.053458,0.35456,-0.002467,-0.002418,0.38014,1.2471,-0.8951,-1.4561,-1.2521,0.048573,1.1962,1.2216,0.38016,-1.8641,-0.5381,0.53306,0.20149,-0.10456,0.5076,0.53314,-0.23202,-0.89513,-0.43598,0.94115,1.3492,-0.48691,-1.762,0.048438,0.20144,1.2216,0.66061,-0.23193,-1.2775,-1.4815,0.45658,0.86458,0.71149,0.71155,0.94106,0.15067,0.048512,-0.18088,-2.7311,0.40558,0.68611,-1.2776,-0.20662,1.2727,1.196,0.50765,-0.69101,0.27802,0.58405,-0.46152,-0.69102,-0.43609,-0.84389,-0.10444,0.074008,-0.283,0.76264,0.43099,0.38017,-0.23204,-0.51257,-0.3341,-0.053531,0.63522,0.81363,0.074062,-1.7876,0.22696,1.7317,-0.10445,-2.9097,-0.05339,-0.25749,-0.64004,1.0941,1.3491,0.53306,0.17604,0.22712,0.5076,-0.078935,-0.79301,-0.51251,-0.35946,-0.33401,-0.1556,0.25262,0.074093,0.20159,-0.20653,-0.10457,0.78823,-0.35961,-0.002534,0.50762,0.32912,0.78817,0.074062,-0.97149,0.12508,-0.027852,-1.3794,0.8134,-0.76766,-0.10451,1.3236,0.71156,0.023065,-0.25754,0.17601,0.71168,-0.23194,-1.2011,-0.51246,-0.30835,0.048659,0.25266,0.073946,0.073959,-0.10447,-1.1246,0.45654,0.58397,0.94112,0.63504,0.15056,-0.46151,-1.2776,-1.1499,1.5534,1.9103,0.12507,-0.002472,-0.028029,-1.9407,0.17601,-0.61463,-0.48697,-0.20642,0.35465,0.8136,1.9356,-0.97158,-4.4652,1.4001,1.3491,0.86461,2.0378,-0.84412,0.45667,0.17609,-0.25748,-0.38494,-1.0481,-0.10453,-0.053482,-0.48705,0.17611,-0.12977,1.6043,0.91553,-0.79317,-0.74217,-0.99702,-0.00254,0.68614,-0.53815
3,-0.283,-0.43602,-0.078977,-0.078984,0.048518,0.22705,0.22708,0.17607,-0.002454,-0.15546,-0.28301,-0.20651,-0.12999,0.023035,0.17603,0.15054,0.27808,0.074044,-0.12998,-0.15546,-0.18099,-0.15549,-0.053464,-0.002472,-0.002472,-0.05347,0.12505,0.099521,0.099564,0.12509,0.023041,-0.078972,-0.23199,-0.18099,0.074026,0.12505,0.17606,0.09954,-0.10449,-0.18097,0.074069,-0.027974,-0.027993,-0.002461,-0.002461,0.099546,0.12507,0.17607,-0.10447,-0.15546,-0.12998,-0.10448,-0.07899,-0.002485,0.099559,0.20153,0.38009,0.12507,-0.027956,-0.35947,-0.30851,-0.12999,-0.12999,-0.002479,0.12505,0.22704,0.22707,0.048549,-0.15549,-0.15545,-0.20646,-0.078972,-0.002479,-0.002485,0.048531,0.099546,0.074038,0.27809,0.15054,-0.05347,-0.25746,-0.232,-0.18099,-0.05347,0.099515,0.20156,0.15057,0.17606,-0.002443,-0.18098,-0.28301,-0.23201,-0.053488,-0.1045,-0.027987,0.25254,0.30356,0.12505,0.074069,-0.3595,-0.30847,-0.15547,-0.18101,0.048536,0.099521,0.20155,0.12504,0.12505,-0.053439,-0.1045,-0.20647,-0.23198,-0.20653,-0.15549,0.27805,0.27805,0.20155,0.22706,-0.002423,-0.15548,-0.10444,-0.283,-0.07899,-0.10447,0.02301,0.17605,0.17607,0.15057,-0.002448,-0.2575,-0.38499,-0.18101,0.07402,-0.02798,0.074013,0.30358,0.32907,0.099559,-0.002454,-0.334,-0.385,-0.15549,0.12506,0.099534,0.17604,0.099552,-0.002461,-0.053446,-0.002454,0.074038,0.15053,0.22707,0.048536,-0.33399,-0.15548,0.17607,0.20155,0.32909,-0.10447,-0.05347,-0.18097,-0.35954,-0.33399,-0.232,0.38006,0.4056,0.55862,0.15058,-0.15549,-0.23197,-0.33399,-0.15549,-0.48703,-0.23203,0.35458,0.45661,0.30354,0.22708,-0.02798,-0.15547,-0.23199,-0.20649,-0.02798,0.15055,0.12506,0.099546,0.15057,0.12508,-0.10448,-0.41051,-0.18098,-0.027993,0.023029,0.099534,0.25255,0.023047,0.17607,0.099552,-0.078966,-0.46152,-0.30848,-0.13001,-0.002472,0.27809,0.20153,0.30358,0.15056,0.17604,-0.28297,-0.25751,-0.053446,-0.15549,-0.027998,0.023072,-0.02798,0.20155,0.27809,0.35461,-0.078959,-0.23202,-0.41051,-0.079021,-0.1555,-0.18101,0.15054,0.22708,0.53314,0.30363,-0.027931,-0.38503,-0.46154,-0.48703,0.02301,0.15053,0.22704,0.30359,0.25256,0.074038,-0.10446,-0.10443,-0.30848,-0.3085,0.074033,0.048506,0.048518,0.25256,-0.027962,-0.23202,-0.23201,0.32914,-0.10448,0.12505,-0.027987,0.17607,-0.30854,0.20153,-0.027931,0.099552,-0.18097,-0.38496,-0.12999,-0.027998,-0.053495,-0.13,0.15056,0.32907,0.30359,-0.002423,0.048549,-0.3595,-0.41048,-0.1045,0.27804,0.17604,-0.078996,0.048549,0.1251,0.53316,0.048567,-0.30852,-0.51257,-0.10452,-0.48706,-0.25749,0.30359,-0.0535,0.4056,0.53314,1.1196,0.12511,-0.66548,-0.76753,-0.58906,-0.002521,-0.232,0.15056,0.48211,0.38007,0.22708,-0.15549,-0.23197,-0.18098,-0.2065,0.099528,0.12505,-0.18103,0.048525,-0.078928,0.32908,0.12509,0.023078,0.17607,-0.30852,-0.078984,-0.078984,-0.10448,-0.33402,-0.20651,-0.078972,0.27805,0.25259,0.12507,0.15056,0.048543,-0.028018,-0.027969,0.22707,-0.20648,-0.69104,-0.74203,0.35462,0.32908,-0.35956,-1.0481,0.45658,1.2982,1.2472,0.78812,-0.053482,-1.2266,-1.4816,0.17614,0.55863,0.099534,-0.12994,-0.30858,0.27803,-0.078996,0.66067,0.48218,-0.41057,-0.53807,-0.53805,-0.28298,0.32907,0.71161,0.3546,0.2016,-0.002412,0.04861,-0.1045,-0.20653,-0.232,-0.58903,-0.76753,0.048536,0.63506,0.76262,0.58413,0.78813,0.68617,-0.43596,-1.5581,-2.0682,-0.15554,0.89011,1.0941,0.35458,0.023047,-0.05347,-0.20648,-0.12996,-0.23199,-0.027956,-0.002443,-0.10453,-0.027969,0.09957,-0.12993,0.023108,0.25262,0.60967,0.074013,-0.30854,-0.46155,-0.99721,-0.053586,0.48205,0.50759,0.3036,-0.15542,0.023096,-0.30846,-0.12994,-0.027962,-0.56357,0.17601,1.0687,0.94122,0.48221,-0.86955,-1.0481,-0.76766,-0.43619,0.048438,0.68616,0.4311,0.30361,-0.00232,0.15064,-0.28305,-0.18101,0.3036,0.1761,0.6097,-0.33404,-0.48717,-0.38505,0.023029,-0.002454,0.074033,0.074038,0.83919,-0.25751,-0.23199,-0.74203,0.099637,0.27811,-0.33402,-0.028018,0.9666,-0.078984,-0.84409,-1.2266,-0.078966,1.0941,1.1962,0.60959,0.07402,-0.64004,-0.64,-0.15542,-0.30857,0.20159,0.32908,0.32907,-0.81852,-0.56348,0.022998,0.66058,0.176,-0.15546,-0.053519,0.58408,-0.078972,0.38009,0.60962,-0.23197,-1.099,-0.71656,-1.3286,-0.283,1.1196,0.71156,0.78811,0.68613,-0.23201,-0.30844,-0.66552,-0.48701,-0.76752,-0.33404,0.53306,0.099503,1.3491,0.78804,-0.078959,0.3292,0.66062,-0.002503,-0.46151,0.30372,-0.6656,-1.3031,-0.56356,-1.9661,-0.64,0.78624,0.99026,1.5513,-0.15548,0.83914,0.32905,-0.74192,-0.053573,0.88992,1.2725,0.074155,-2.5016,0.3291,1.5022,1.1196,0.32912,-0.92064,-0.33401,-1.3794,-1.3288,-0.38508,-2.1192,-1.8642,2.9303,5.3275,4.7667,-0.5635,-5.6892,-3.2158,2.8282,1.9356,1.4,-0.81865,-2.8076,-4.0574,2.1143,-0.20627,-0.56345,1.6806,2.8029,1.6041,-1.8896,-3.1392,-1.5581,1.8082,0.37998,1.7061,-1.0481,-3.0884,-0.5635,2.7008,2.3949,0.96643,-0.027773,-1.5582,3.5168,0.40538,-1.1246,-3.9042,-1.3286,0.55869,-2.9096,-0.002394,0.9412,0.68606,2.9047,1.3489,0.96664,0.78797,-0.33398,0.38007,1.0431,-3.6236,-6.5564,-1.3285,1.0176,2.3182,3.3638,3.6443,1.1451,-3.3688,0.09943,1.0431,-4.1848,-2.017,2.4967,-0.33374,-3.0882,0.43103,1.4256,3.6189,1.0431,-0.35956,-2.2467,-4.3633,-0.20645,1.5277,2.0632,1.3236,-0.10437,1.1197,-0.41051,-1.9917,-0.81862,2.4714,0.55832,-1.9663,-0.027553,-3.2157,0.60949,2.3947,1.094,-0.5891,-0.41055,-2.6292,0.94134,2.1907,2.0376,0.89001,-2.5015,-2.323,0.38013,0.40549,0.023114,-0.18101,0.20159,0.30354,1.2215,-0.35964,-0.12988,2.1398,-2.0682,-2.9354,0.07391,0.94111,2.0124,-0.23171,-0.41038,1.3235,0.40554,0.76258,0.048469,-2.7822,-0.99706,-1.1756,-0.61441,0.68617,0.66052,1.6041,0.55847,0.58407,0.6861,0.71176,0.73736,-1.0225,-2.4253,-3.3433,0.023084,4.0777,-0.10464,-7.3724,0.50762,2.2161,2.8283,2.8537,1.7827,0.22713,3.7718,-3.7767,-5.6128,0.53294,-1.8896,-2.3741,0.48214,1.6551,4.2309,0.53317,-2.4507,-1.0736,1.9613,0.22713,3.6696,1.4511,-6.939,-1.558,2.5476,-0.97147,-2.3742,1.2215,3.5423,1.8593,0.60967,0.35462,0.20161,-1.7622,-1.2774,-0.48708,-2.6802,-2.7565,1.6296,2.5988,1.4511,0.45659,0.76263,0.60949,-0.10459,0.5076,0.431,-2.3231,-3.2412,1.9614,0.12505,-1.3287,1.3493,1.7316,1.1196,-3.0117,0.68608,1.3491,0.099521,1.8336,0.43103,-0.58902,0.32915,-0.63991,-3.7513,-1.1245,-0.027969,1.1452,2.8281,-2.0937,-3.8276,1.502,2.6498,2.1397,1.6552,0.32905,-1.0991,-0.18112,0.55851,-1.6347,-2.3486,0.61001,0.6863,1.0688,-2.3488,-2.2214,1.7315,-0.89515,0.22704,0.25257,2.2163,2.5987,-1.0734,-0.53798,-1.4051,-1.1245,2.1652,-0.10456,0.96661,-0.027974,-2.0426,-0.15533,1.6043,0.40569,-0.13007,-1.4309,-0.71665,-1.762,-0.48696,0.58401,-0.078928,1.3746,0.73704,0.40549,0.22697,-0.61445,0.20159,-0.43598,-0.02795,-0.48702,0.38013,1.4767,1.2726,-4.0573,-3.0372,1.3746,2.0122,1.5533,0.83912,-1.4563,-1.0991,0.63504,1.6041,-0.43612,-1.4561,0.023084,0.94107,0.58407,1.5788,-0.81849,0.17596,-0.74198,-1.966,-0.56342,0.9667,0.48199,0.63494,-0.002577,0.25251,0.32902,0.15052,-1.2521,-1.1244,0.55878,0.48209,-0.58926,1.4511,0.50751,-1.048,0.17601,0.66056,-2.476,-0.86943,0.48201,-0.61454,3.2362,2.2417,0.50755,-0.23186,-1.3541,1.3747,-1.5326,-5.2048,0.91568,1.3747,3.3638,1.6805,-3.9554,-1.3795,2.2927,-0.13005,-1.8385,1.3491,0.63508,0.63501,-0.51257,-0.43589,-0.33406,0.25263,-0.053409,-0.28296,0.48189,-0.538,-1.8895,-1.354,-0.86953,1.1195,3.6442,1.1961,-3.8277,1.2981,1.9357,-1.6346,-0.2065,-0.74211,-1.2775,-0.002443,0.94119,0.12513,-0.43604,0.63521,0.60961,-1.15,1.2725,-0.13007,-0.92054,-2.2722,-0.18097,0.71158,1.0431,1.0687,0.53307,-0.053433,-0.58896,0.30355,0.2526,0.3035,-1.2011,0.15057,0.12504,0.48209,-1.5582,-1.0226,1.094,-0.69077,-0.027797,2.7261,-1.4051,-2.4252,1.451,1.3491,0.76253,1.4511,0.15065,-1.3286,-0.30843,-0.74198,-0.15551,0.55862,0.40553,-0.30853,-0.46159,-0.46155,-0.02795,1.1452,-0.10439,-1.9406,-0.81857,0.55856,2.2419,-0.5125,-1.9407,1.604,0.2526,-0.94594,1.6041,-0.79301,1.2471,0.53306,-1.0481,-1.0226,0.78804,-0.15548,0.15064,-0.58886,-1.15,-0.027974,0.4566,-0.97151,-0.18107,1.2981,1.2981,-0.46145,0.71164,0.78813,-1.7621,-0.28305,0.73714,2.0121,0.073989,-0.61443,-1.7876,-1.6345,1.2725,1.1706,-0.41046,-0.61452,0.40555,0.099521,0.25252,-0.053464,-0.38495,-0.56348,0.22713,0.048512,-0.76755,-0.10457,0.30348,0.78804,1.7062,-0.56361,-3.6745,-0.79283,2.2419,2.4202,0.022876,0.81345,2.1651,0.63507,-4.4143,0.43107,-0.43591,-0.81851,0.5076,0.94122,-1.3031,0.32905,1.7062,0.78801,-1.1756,-0.23201,0.68604,-1.099,0.32915,-0.89502,0.38006,0.8901,1.4512,-0.97167,0.12518,-0.84412,-0.15538,-0.1556,0.40562,0.17605,0.38013,0.17604,-0.61451,-0.53802,0.86471,0.78815,-0.07891,-0.053519,-2.2467,0.45656,-0.43606,-1.303,2.1907,1.2727,-0.078928,1.0177,0.20163,-1.6346,1.2216,-0.56358,-1.3284,-0.56359,0.27799,0.38004,0.71161,-1.1246,0.099588,-0.99719,1.4769,0.022894,0.78822,0.12499,-0.30855,0.074026,-0.00243,-0.51258,0.73709,0.32908,-2.5271,-1.2775,1.0687,0.48211,1.4511,1.655,-0.25756,-1.1245,0.02317,-0.33384,0.737,0.25252,-3.1901,-0.66562,0.68599,-0.58907,2.0632,1.7572,-1.9151,-0.81853,0.71163,1.1962,0.023017,0.15064,-0.76763,0.048487,-0.84407,0.25249,-0.79297,0.0741,0.30362,0.58421,1.0431,-0.71665,-0.63998,-0.41057,-0.41058,0.71163,1.2726,1.9357,-0.28284,-1.7111,0.99207,-1.8386,-1.3796,-0.28311,1.3236,0.55861,1.2983,0.2782,0.86463,-1.2522,-1.2777,-0.18108,2.3692,-0.58902,-2.8077,2.0632,-0.7931,0.074136,0.53306,0.81366,-0.053342,0.53309,-0.71655,-0.58896,0.43099,0.048451,-0.15553,-0.38495,-0.25744,0.78813,-1.1757,-2.6292,0.50761,0.81353,0.63524,0.073977,0.6351,0.048482,0.074062,0.71171,1.3491,0.431,-2.0171,-3.7255,-0.079106,1.7062,0.99215,0.78804,-1.0227,0.8136,0.53306,-1.1756,1.0687,2.2417,-2.8587,-2.5781,-1.2522,0.20169,1.1962,0.81353,0.22703,-0.15554,0.38,0.94106,1.8082,-0.46145,-2.425,-2.0681,0.40561,0.94101,0.73701,0.227,1.196,1.3747,1.2726,-3.0881,0.25282,0.76273,-0.20651,-1.2774,-0.079093,0.1759,0.30335,-1.6092,-0.71656,1.9866,1.1196,-2.9606,-2.5014,3.4914,2.4968,0.63505,-2.5272,-1.048,1.655,1.5277,0.48217,-0.4106,-1.5073,-0.71652,0.20153,-0.6146,-1.5071,0.73709,0.66064,-0.53792,0.55861,-0.002467,0.30358,0.38011,0.58407,-0.51251,-0.25748,1.3745,0.78806,-2.5781,0.2271,2.6243,-1.3795,-2.5271,-0.028042,0.86455,1.2216,-0.10459,-0.84401,-0.027974,0.27811,1.9103,1.9358,-1.252,-4.8477,-1.6602,1.0429,1.1451,1.5021,0.30354,-0.23193,-0.027944,0.91568,0.58411,0.35456,-2.1191,-0.58899,1.3236,1.8846,-2.7312,-2.0426,0.63511,0.048469,0.68609,1.8848,1.6298,-0.61457,-3.7003,-0.30858,1.2216,0.17598,1.0433,0.15057,-0.436,-0.94609,-0.13002,0.63501,1.1451,2.7262,0.81365,-0.5379,-1.9405,-1.6855,-1.66,-0.028018,0.2271,-0.18104,0.60955,0.66055,1.3746,0.20155,-1.3796,0.53313,0.074013,0.35455,0.96654,2.0887,-2.374,-1.711,1.4766,-0.97158,0.20146,0.30356,0.5075,0.81364,-0.3341,0.40562,0.50766,-2.5016,-0.12992,0.45666,-1.4306,0.048512,-0.56354,0.6351,1.8081,1.7317,0.584,-0.86958,-1.2011,-0.078959,-1.2266,-1.3286,-0.15542,1.0431,1.2217,0.048555,0.58411,0.86455,0.73712,-0.71651,-0.23194,-0.99707,-1.2777,-0.15548,1.6552,-0.38501,-1.3796,0.40565,0.5841,0.22712,0.3036,0.09951,0.45652,-0.79312,-1.7621,1.0177,1.3492,0.78813,-0.97155,-0.9205,-0.7167,0.55863,1.0176,-0.69092,-0.078966,0.71146,0.25252,-1.303,0.40566,-0.41044,1.7825,0.53321,-3.3687,-1.8641,1.4,1.7061,1.247,1.0687,1.2982,-0.99697,-2.6036,-0.38495,0.023029,0.278,0.66056,0.27804,0.4311,0.38006,0.40546,0.6607,-2.0935,-1.3285,-2.1701,-1.3541,1.9356,1.6551,1.1196,0.60955,0.40547,0.17607,0.83911,-0.58891,-0.25743,-0.8185,-2.6802,-0.23197,1.2216,0.35457,-0.61458,0.89009,0.45651,-1.0225,0.25264,0.35456,1.5531,-0.61442,-0.7675,-0.20651,0.96663,-0.33413,-0.69102,0.38004,-0.61446,-0.99703,0.66058,0.023029,0.50754,-1.099,-0.12991,0.22715,1.7317,0.99216,-1.5326,-1.1246,0.43107,0.25243,0.35453,-1.2265,-0.63997,0.55857,-0.002467,0.20155,0.25259,-0.25748,0.023017,0.35453,-0.10453,0.3291,-0.18103,0.074118,0.35458,-2.4251,-0.66563,1.1195,1.2217,0.40553,0.91566,-0.23193,-1.609,-0.33389,0.048561,0.48213,1.2216,0.55859,-1.6601,0.073946,0.35451,-0.027969,0.25251,-0.74202,-0.66545,0.074081,0.68604,-0.12999,0.50759,0.048549,0.43111,-0.56348,-0.48704,-1.1246,0.60964,-0.43601,-0.41049,0.83912,1.9358,0.60953,-1.6857,0.53296,-0.079045,-0.25743,0.04858,-0.18092,-0.89501,-0.15553,0.30364,0.048647,1.1706,0.58397,-1.0226,-1.5325,-0.46156,1.0178,1.1707,0.32902,-0.20655,-0.25761,1.1451,0.60959,-2.0171,-1.6345,-0.41047,0.45654,0.40555,0.27805,0.32907,0.94108,0.48208,-0.99699,-0.43606,-0.20646,-0.66556,0.76271,0.50755,-0.10453,-0.48699,0.91559,0.048445,-2.3998,-0.12997,0.63513,0.38012,0.53302,1.0432,-1.3541,-0.9205,1.0176,0.68624,0.12499,0.023029,-0.94598,-0.46154,0.8646,0.38006,0.12505,0.17602,-0.00251,0.27801,-0.41054,-1.048,-1.0225,0.73714,0.17609,0.048494,0.71159,1.2216,0.12502,-0.97155,-0.99699,-0.1555,0.86461,0.43109,-0.053537,-0.053458,-0.81855,0.48201,-0.15551,-0.0535,1.1707,0.48214,-3.5217,-1.8895,0.78811,1.7827,0.86458,0.63507,0.329,0.71151,0.45654,-1.7621,-0.94609,0.15057,0.22715,0.50762,0.32907,-0.51255,0.15052,0.53313,0.22705,-0.33401,0.074057,-0.33396,0.40557,0.25254,-2.7821,0.5075,1.7827,-1.2776,-0.94604,1.1197,0.53301,0.30355,-0.10457,-0.41047,-0.12996,1.7571,-0.487,-0.30848,0.76267,-1.15,-1.099,-0.43599,0.22711,-0.13007,0.86459,1.1707,-0.84402,-2.3232,0.5841,0.40552,2.9557,0.68605,-2.0936,-0.51243,-0.38501,-1.1756,0.50757,0.32901,1.1962,-0.69094,-0.053458,-0.18091,-0.18109,0.17606,0.35454,0.073977,0.12502,0.66053,-0.38503,-1.1755,-1.4816,0.58409,0.45666,0.3547,0.32908,-0.33397,0.32902,1.043,-0.23198,-0.81859,-0.81852,0.43108,-0.18091,0.60955,0.60957,1.4001,0.048476,-2.0426,1.298,-1.5836,-2.9096,1.6298,1.1962,1.2217,0.63506,0.43101,0.073977,-0.71666,-0.69107,-0.2829,0.83909,-0.81846,-1.558,-0.027931,-0.053562,-1.5838,0.50762,1.8337,1.5022,0.73708,0.25252,0.074087,-0.41049,0.2781,1.1707,-0.742,-2.3232,-0.97151,-0.1045,0.6606,-0.00243,-0.30841,-0.15551,0.37998,0.63506,-0.51248,0.73716,1.5021,-2.4507,0.023017,0.91561,0.66053,-0.51249,0.38019,0.60953,-0.25759,-0.53811,-2.2721,-0.4614,0.6606,1.1707,0.8901,0.83911,-1.099,-0.51247,0.533,-0.56354,-0.64002,0.71153,1.5531,-1.0225,-1.8641,1.0177,0.43111,-0.43602,0.27797,0.55853,-0.18101,0.22703,-0.28298,0.1251,-0.33401,-0.9971,0.99223,1.2727,-0.15537,-2.9609,-0.25748,1.2471,1.4512,1.5021,-0.81857,-1.252,0.3291,0.27799,0.53306,0.66059,0.176,-1.7621,-0.74189,1.5786,0.12499,0.76259,0.78813,-2.9097,-1.8387,1.1706,0.89,0.27802,0.40561,0.63506,-0.15545,0.43122,-0.53801,0.53307,0.38008,-0.053537,-0.23208,-0.56357,0.15063,-0.33404,-2.0426,0.9667,0.58407,-2.2466,0.048438,1.2982,1.0431,1.1452,1.2472,0.60953,-1.6601,-0.86954,0.40565,0.32908,-1.1245,-0.028096,0.50755,0.25259,0.68608,-0.05336,-0.74205,-0.99712,-0.74204,-0.71651,-0.97153,1.0431,0.53312,0.20152,0.35456,0.53307,0.048567,0.91562,0.09957,-0.84403,0.53303,0.023059,-0.002497,-0.15547,-0.46154,0.1505,0.073971,0.50765,-1.2265,-0.38497,0.60954,-0.30848,-1.456,1.1451,1.0431,0.22707,0.048512,-0.33401,0.048598,-0.12994,-0.10446,0.048549,0.20152,0.22704,-0.053488,0.17603,0.023059,-0.12998,0.20161,-0.64003,-0.18097,1.0687,0.86469,-2.0171,-0.86958,0.91552,-0.25748,0.25257,0.40562,0.30356,-0.10445,-0.002461,0.20156,0.25252,-0.027962,-0.38499,0.81357,0.50757,-0.7421,-2.0681,-0.053622,-0.002374,-0.99688,0.5078,1.5276,1.8336,0.3544,-0.41052,-0.84409,-0.25747,0.58411,-0.23199,-1.0736,-2.2976,0.38013,1.2727,0.55856,0.45658,0.58407,-0.15551,-0.74202,1.3491,-0.25753,-1.9406,-0.38503,0.17602,0.25258,1.1708,-0.00251,-0.48704,1.0941,-0.69113,-2.1191,0.5076,0.048561,0.73709,0.32898,0.2016,-0.48701,-0.20646,0.30355,0.83904,0.35453,-0.46148,0.38009,0.20162,-0.69103,-1.1501,-0.5891,0.53319,0.3035,0.22705,1.1452,0.022998,-0.71655,-1.0225,1.5532,-0.84409,-1.2265,0.27809,-0.15546,0.71151,0.66062,0.20153,0.17602,-0.078984,-0.58901,0.86475,-0.81863,0.12507,0.86461,-0.9206,-2.8587,0.68602,0.68608,0.58414,1.0687,0.048531,-1.4305,-0.61451,1.2216,0.55848,0.48207,0.15056,-0.28302,-0.12996,-0.58897,-0.028005,-0.35954,-1.2265,0.12507,0.53299,1.0687,0.43099,0.73712,-0.35948,-0.742,-0.38503,-1.0226,0.45659,0.55852,1.3491,1.1961,-0.79288,-0.20639,-0.99712,-1.1754,-0.92061,-0.079026,0.78806,0.12501,0.50753,0.53308,-0.69104,-0.02798,0.96674,0.50768,-0.71648,0.35439,-0.053537,-0.64005,-0.25746,0.45661,0.099466,0.71172,0.3036,-0.23199,-0.58902,-0.15549,-0.002497,-0.92047,-0.48706,1.3491,0.66057,-0.66555,1.4768,-0.5636,-2.2975,-0.92046,0.71163,1.7827,1.5274,0.60959,-1.1501,0.27797,-0.1554,0.22711,0.25256,0.048573,0.48214,-0.74201,-1.3541,-0.13001,0.22702,-0.2575,-1.2776,1.4003,0.43102,0.12506,0.25249,-0.33406,-0.078947,0.50755,0.48211,-0.69101,0.3291,-0.58905,-0.43595,0.04858,0.71154,2.1398,-0.35956,-2.1956,-1.2266,0.91561,0.55857,0.48205,-1.201,-1.5581,0.83919,1.1706,0.89011,0.15047,0.022992,-0.002472,-0.48698,-0.43591,-0.10449,-0.02798,-0.002472,0.17603,0.20156,-0.30844,-0.15543,-0.33406,-0.41052,0.35457,0.023059,-0.9716,0.6351,0.76258,0.074062,0.329,0.0485,0.40555,0.12499,-0.76748,-0.48697,-0.28295,0.12512,-0.18098,-0.053537,0.73708,0.8646,-0.99693,-2.2976,0.22712,2.7262,0.635,-3.5218,0.71156,0.96655,0.63502,0.2015,-0.027907,0.099699,-0.48703,-0.61452,-0.053482,-0.181,0.32908,0.83909,-0.92053,-0.078984,0.48208,-0.997,-1.0735,0.55852,0.17598,1.1451,1.9102,-0.43604,-3.2412,-0.15545,0.40559,0.73714,0.30352,0.30354,0.17606,0.43106,-0.18096,-0.23198,0.81355,0.02301,-0.742,-0.51246,-0.23201,0.38006,0.3036,-0.97154,-0.15551,-0.23199,0.15052,0.68613,0.53311,0.25256,-0.13,-0.58902,0.22719,-0.00257,0.35449,-0.027969,0.27804,-0.6655,-0.35943,-0.027969,0.099619,-0.51244,0.12504,-0.0535,-0.15552,0.686,0.63496,-0.46159,-0.41039,-1.0225,0.50775,1.3748,0.43106,0.048518,-0.46156,-0.33404,0.099528,-0.002546,-0.15549,-0.28299,-0.23194,0.55856,-0.28295,-2.8076,0.53306,0.58394,2.0889,1.1451,-0.10447,-0.33389,-0.027969,-0.53807,-0.691,-0.58901,0.50752,0.30349,0.94108,-0.538,-0.64006,0.32917,-0.35954,-0.38499,-0.20644,0.20155,0.09954,0.25251,0.53311,-0.15545,0.02301,-0.23193,-0.027956,0.32905,0.0485,1.3236,0.30356,-3.2667,-0.97152,0.60953,0.60965,0.73711,0.71165,-0.71661,0.73719,-0.079033,-0.46159,0.12509,-0.053549,-0.002558,0.09951,-0.15546,-0.027827,-0.43598,0.023084,0.38001,-0.64004,-1.5071,-0.53783,1.5277,0.94122,0.89004,0.20157,0.074013,0.25246,-0.89512,-0.10453,-0.10453,-0.58899,-0.027907,0.023047,0.32914,-0.078923,-0.46153,0.17609,-0.74203,1.0687,0.48197,0.38006,0.074069,-0.10447,-0.43606,-0.56351,-0.12996,-0.053415,0.22702,0.81362,0.5076,0.25254,-0.76756,-1.2265,0.38006,-0.078972,-1.1755,0.83907,0.81352,0.53311,0.71155,0.35463,0.38007,-0.84412,-1.099,-1.8641,0.50763,1.3746,-0.43603,-0.69094,0.68607,0.35451,0.55861,0.32905,0.68606,-0.79303,-0.15538,0.38011,-0.078917,-1.0225,-0.43604,-0.23204,0.89015,0.94106,-0.41039,-1.6346,0.71157,0.35458,0.45651,-0.002552,0.099515,-0.33404,-0.48694,-0.1044,1.4002,-0.436,-0.99699,-0.078966,0.50757,0.71167,1.1961,-1.2266,-2.1701,0.17597,-0.30845,0.86463,0.83909,1.4257,0.022937,-0.81848,-0.61449,1.0685,0.45661,0.38006,-2.0935,-1.0735,0.227,-0.13004,0.32907,0.60962,-0.002467,-0.28303,0.15051,-0.12995,-0.15548,0.40557,0.023023,-0.74201,0.22707,0.50754,0.5332,-0.46154,0.17601,-0.053488,-0.1554,-0.86958,-0.41054,0.89009,0.278,-0.053482,0.0741,0.94119,0.38011,-1.4306,-1.5836,-0.10443,0.40555,0.71158,0.48205,0.50757,0.20151,-0.56361,0.27802,0.53305,-0.71642,-0.76747,-0.15543,-0.35954,-0.46153,-0.18103,1.0176,1.0431,0.15057,-0.53803,-0.58899,0.12511,0.83914,1.3747,-1.6091,-2.9862,-0.35949,1.6551,1.7061,0.86461,0.43109,-0.23193,-0.18102,-0.30841,-0.28301,-0.18096,-0.48702,-0.078788,-0.20658,0.048616,0.099503,-0.13004,0.15045,-0.33403,-0.07899,-0.002516,0.12502,0.94111,0.9922,-0.15537,-0.48696,-2.0426,-1.609,0.78802,1.6041,0.89007,0.048536,0.023065,-0.23205,-0.13001,-0.385,-0.28295,-0.76752,-0.02798,0.38016,0.66056,-0.20655,-0.30837,0.15053,0.048438,-0.43606,-0.41049,-0.1045,1.0687,-0.18097,-0.51248,-0.74201,0.43098,1.7572,0.55854,-0.15537,0.22724,-1.5327,-0.61452,-0.74204,0.96667,0.78804,0.40552,0.227,-0.18104,-0.10435,-1.2265,-0.2065,0.32914,-0.41049,0.58402,0.81355,-0.15554,0.17608,0.20161,-1.201,1.1452,-1.0225,-0.94606,2.1652,0.78816,-1.2266,0.38001,0.35439,-0.97149,-1.1755,1.0941,-0.12997,0.94108,0.099583,-0.41049,0.63504,-0.99714,-1.8386,0.68615,0.17617,-0.30843,0.20153,0.32899,1.2727,0.55852,-0.15556,1.094,-0.027882,-2.1191,-1.6856,1.1963,2.3181,0.30349,-3.6491,-1.099,2.4965,1.3236,-0.20648,-0.487,-0.53798,0.38003,1.6551,-0.41039,1.2983,-1.9151,-1.2265,0.32902,0.1249,0.8391,0.89004,0.022992,-1.6092,-1.2265,-0.002345,1.196,1.4512,-2.4505,-1.5836,0.86458,2.4967,0.38007,-1.6346,0.63487,1.1706,1.2982,3.2872,0.58408,-7.8568,-3.5727,1.1451,1.8336,1.043,1.298,1.7827,-0.86953,0.02309,0.43111,-1.4306,-0.002423,-1.5835,0.78813,1.5277,0.66064,-1.5582,-1.15,0.022937,0.81347,-0.053573,-0.43599,0.89022,0.3291,0.12502,-0.053488,-1.4561,-0.10452,0.89013,1.0432,2.5987,0.27805,-4.0318,-1.9405,-0.71647,1.5786,1.1452,0.073917,0.12493,1.1451,0.86464,-1.3029,0.58403,-0.053513,-0.58889,1.7572,0.71141,-3.5216,-2.9862,-0.51252,2.1908,-1.2266,2.2671,2.9812,-0.92037,0.40565,0.099491,-0.81864,0.022974,0.22692,-2.2721,0.53321,1.0176,0.099491,-0.6145,0.30368,0.22705,-1.4817,1.4255,-1.0736,-3.241,0.96669,1.3493,1.9103,1.3491,0.73682,0.099588,0.48206,-0.99723,-0.43596,-0.46147,-0.81861,-2.4251,0.38011,2.0887,1.9356,0.12505,-4.1592,-0.51254,2.3184,1.1705,0.37998,-0.053519,-0.99696,0.30361,-1.252,-0.53801,0.32909,0.20144,1.5533,-0.28306,-0.74211,0.71167,0.20156,0.66056,-0.283,-2.3231,-1.2267,0.99212,1.2981,-0.86962,1.2473,2.9048,-4.1337,-1.5835,1.0177,0.22702,1.0941,0.91549,1.9867,2.8792,-0.20657,-4.5673,-4.4397,0.022992,1.1706,1.0177,-0.20647,0.94115,0.22702,0.78808,0.38001,-0.6145,-0.74204,-0.20663,0.35456,-0.10449,0.50763,0.20146,-0.002418,-0.3084,-1.3286,0.048561,0.96676,0.023035,1.8081,-1.8131,-2.8331,0.30353,2.6497,1.6041,-1.201,-1.201,0.58406,0.048531,-0.20658,0.20139,-0.41036,0.32916,0.94126,-0.028103,0.30366,-0.94609,-2.6293,2.8284,-0.9461,-5.0518,1.4002,1.8336,2.2415,1.7571,0.38008,-0.027895,0.32913,0.55854,-1.405,-3.0117,-0.48695,0.50764,0.43095,-0.002521,-0.94602,1.3236,-0.4105,-0.56338,-0.35953,0.96657,1.6042,-0.38502,-0.28302,0.63514,-0.33406,-0.13012,0.94124,0.074062,-1.4305,0.45661,-0.13002,-1.4306,1.0942,1.3237,-0.79314,0.53306,-0.41052,-3.2412,1.2471,-0.002472,0.38023,0.9921,1.145,0.35446,-1.0735,-1.5069,-0.48697,1.0431,1.1451,-0.69088,-0.53811,0.329,1.2471,0.40555,-1.2266,0.50765,-0.053348,-1.9405,0.27803,0.63501,0.074044,0.15049,0.45649,-0.053525,0.048604,0.43098,-0.46136,-2.0426,0.89007,-0.13002,-0.079008,0.02298,0.12509,1.1707,2.3947,-0.56349,-5.5364,-0.43601,0.89007,1.0687,1.4511,0.15043,-0.20639,0.37999,0.5076,-0.05347,-0.48698,-0.35951,-0.43595,0.22717,0.023059,-0.74201,0.48209,0.22699,0.25251,0.43104,-0.69104,-1.7875,0.66062,1.5021,-0.33398,-0.13005,0.71157,0.50757,0.17603,0.66061,-1.0735,-0.15542,-1.4051,-1.303,1.3746,1.0431,-0.71656,-0.51246,0.83909,0.66056,0.099497,0.22708,0.48206,-0.66534,-0.58896,-0.35951,0.37996,0.68599,0.12502,-0.15541,-1.3541,-0.48701,1.3237,-0.33394,-1.1501,0.45648,2.9302,-0.71658,-3.7768,1.5024,1.9868,-1.8896,-0.18095,0.73709,0.99202,0.94101,0.50751,0.35452,-0.51258,0.15068,-0.66534,-0.53795,-0.38504,-0.30853,-0.41053,0.35465,0.55857,-0.30855,0.50757,-0.79299,-1.507,0.074044,1.7572,1.4256,-0.89503,0.15057,1.2726,-0.13004,-0.18098,0.17601,-0.002399,-2.2465,-0.25745,0.35453,0.71151,-0.56367,1.1962,-0.20646,-0.946,1.3749,0.27803,-0.56358,-1.0226,-0.23207,0.25252,0.25253,-0.33398,-0.33396,0.76265,0.40565,0.3036,0.048536,0.074044,0.76256,-1.7111,0.17601,-0.48694,-0.002583,0.45651,0.30362,1.9868,-0.43591,-5.0773,-0.94609,1.9866,0.71152,0.60952,1.5278,0.27801,-0.15557,0.17625,0.63507,0.53312,-1.507,-1.5836,0.12498,0.32899,0.17609,-0.002405,0.48209,-0.33391,-0.283,0.45656,0.83911,-1.5581,-0.86955,1.0431,1.9612,-2.3743,-0.66552,1.1706,0.48209,0.48215,0.45666,0.20156,-0.20644,-0.48712,0.25255,-0.38509,-1.4562,-0.997,-0.1045,0.1251,0.45659,0.32909,0.40554,-0.1045,1.2471,-0.078892,-2.5527,-0.02792,1.2982,0.53312,0.27797,0.76261,-0.97155,-0.20654,0.40559,-0.10446,-0.48713,-0.43582,-0.079045,0.53306,0.1761,0.55853,-0.38501,0.17603,-1.2267,0.30362,0.89021,-2.0425,-2.5016,0.99216,1.6807,1.6806,0.17598,0.58403,-0.12997,0.48211,-0.15545,-0.18094,-0.053513,-0.33392,-1.0481,-0.078947,-0.64004,-0.028005,0.43115,0.40555,-0.15548,-0.15551,-0.13001,0.48209,0.25252,0.30354,0.12501,0.55856,-0.89498,-1.2776,0.45662,0.048634,0.15057,0.73708,-0.053531,-0.13002,-0.56353,-0.3084,0.20156,0.17602,-0.20654,-0.078996,-0.18103,0.17607,0.023023,0.074075,-0.181,0.32908,1.8847,1.0176,-3.4453,-0.84401,0.099577,-0.10444,-0.46134,0.73705,0.63496,-0.53812,0.83904,0.45658,0.048629,0.15062,-0.99704,-1.048,-0.079021,0.38003,0.58407,1.8846,-0.74201,-3.8786,0.58407,1.2472,0.86459,1.2471,0.38004,-1.0227,0.30356,1.0431,-0.33396,-0.86952,-0.53795,-0.51252,-0.18091,-0.63996,0.30352,0.55853,0.048445,0.2271,-0.997,0.27807,1.7571,-0.33401,-3.4707,0.71158,1.8337,1.4001,1.0431,-0.053446,0.048555,1.3746,-2.6036,-4.9497,-2.1191,3.3639,1.2725,0.66044,0.91554,0.63507,0.22704,0.1506,-0.078917
