-0.12999,0.074038,-0.053464,-0.10448,-0.053458,-0.002454,0.099546,0.17606,-0.10449,-0.25751,-0.30853,-0.079002,0.12505,0.25257,0.15056,0.17609,0.12505,-0.002443,-0.15548,-0.25752,-0.2575,-0.053495,0.25257,0.17606,0.023035,-0.027944,-0.027962,-0.002454,0.1506,-0.13002,-0.30854,-0.10448,0.074013,0.17607,0.09954,0.12505,0.074051,-0.10447,0.023072,-0.079014,-0.002472,-0.181,0.099552,-0.053495,0.074062,-0.027969,0.048549,0.074057,-0.002467,-0.10449,-0.20652,-0.053476,0.09954,0.074038,-0.053464,0.22708,-0.027956,0.15058,-0.18098,-0.053482,-0.181,-0.053476,0.048518,0.15054,0.048549,-0.027956,0.099552,-0.053464,0.12506,-0.18101,-0.20652,-0.12999,0.12504,0.15055,0.15059,-0.12997,0.074075,0.023054,0.17607,-0.18101,-0.15551,-0.18098,-0.002472,0.074033,0.074044,0.15055,0.048549,-0.027956,-0.12998,-0.078977,-0.23203,-0.181,0.22706,-0.20649,0.20158,-0.002472,0.27809,-0.002461,0.15057,-0.25751,-0.18098,-0.181,0.25256,-0.078984,0.12507,-0.05347,0.074038,-0.18096,-0.18097,-0.181,-0.15551,0.099546,0.20155,0.15054,0.074051,-0.002448,-0.078966,-0.078947,0.099546,-0.002491,-0.10449,-0.23198,0.048531,-0.1045,0.15057,-0.053458,0.25258,0.099559,0.099559,-0.283,-0.33404,-0.15548,0.074033,0.048531,0.12505,0.099546,0.099546,0.074062,-0.078966,-0.23201,-0.078966,0.074033,0.40558,0.099534,0.099546,-0.20648,0.023054,-0.002448,0.12507,-0.35951,-0.35954,-0.46151,0.023017,-0.181,0.53308,0.40559,0.53312,0.12507,0.12505,-0.56356,-0.56355,-0.25751,-0.002472,0.023029,0.3291,0.048561,0.074069,0.32908,0.048531,-0.23199,-0.38505,-0.12998,-0.028005,0.50757,-0.078966,0.17609,0.12507,-0.15545,-0.002443,-0.46161,-0.053525,-0.181,0.30359,0.15056,0.71173,-0.078935,-0.027956,-0.46152,0.048536,-0.33405,-0.13004,-0.25751,-0.35956,0.17603,0.86466,0.58417,0.35464,-0.41055,-0.23198,-0.28294,-0.20649,-0.51254,-0.20658,-0.15555,0.12501,0.4311,0.25268,-0.48694,0.40569,0.073965,-0.33413,-0.3341,0.048549,0.60967,0.7882,0.15058,-0.81856,-0.33401,0.073989,0.099546,-0.6146,-0.33399,0.58407,0.50757,0.30353,-0.38497,-0.33396,0.20158,0.27812,0.12512,-0.002472,-0.053531,-0.30859,-0.20655,-0.48703,0.66065,0.66074,-0.25743,-0.6656,-0.53817,0.022925,0.12504,0.32908,0.17611,-0.1044,0.048629,0.099601,0.53314,0.66069,-0.027944,-0.94616,-0.38509,-0.20651,0.32902,-0.30858,-0.23202,-0.10455,0.43106,-0.12994,-0.38502,0.099583,0.074106,0.89021,0.89016,0.35462,-0.92056,-0.6655,0.60976,0.30353,-0.76767,-0.97174,-0.79312,0.45662,0.78813,0.073995,0.55858,0.25253,-0.20648,0.15062,-0.58908,-0.84407,-0.58901,0.20155,0.45667,0.50764,0.38008,0.81366,-0.027938,0.15056,-0.38501,-0.18095,-0.18101,0.45663,-0.10452,-0.3851,-0.79319,-0.53809,0.12505,1.1963,1.2984,-0.20642,-0.538,-0.69114,-0.79321,-0.28313,0.27799,0.48218,0.71178,0.45659,-0.84408,-1.1247,-0.30851,0.43113,0.83915,0.53313,-0.12993,-0.10449,0.40559,0.022986,0.45666,-0.18097,-0.35948,-0.02798,-0.66559,-0.38511,-0.3341,-0.078953,0.58414,0.63512,-0.053409,-0.92053,-0.46151,0.35454,1.0942,0.27805,-0.48703,0.023023,0.073971,-0.25749,-0.28306,0.20158,0.17609,0.55867,0.27813,-0.33399,0.20158,-0.48711,0.099521,0.17605,0.15054,0.20152,-0.02795,-0.66545,-0.64,-0.10447,-0.35955,-0.13009,-0.38515,0.27802,0.25262,0.58422,-0.28294,0.17603,0.40561,0.45669,0.38012,-0.38511,0.20161,-0.46155,-0.30857,-0.79314,-0.18094,0.58419,0.35463,0.099546,-0.283,-0.0535,-0.18099,0.38005,-0.13,-0.10452,0.32907,0.38007,0.048604,-0.63998,-0.053488,0.023005,-0.10449,0.048543,0.76277,-0.33403,-0.81868,-0.79319,-0.30858,0.27806,0.32913,0.55872,0.40563,0.35458,-0.33401,-0.53801,-0.58906,-0.053506,0.3291,1.2983,0.3291,-0.002558,-0.48711,-0.41058,-0.38506,-0.61458,-0.18097,0.27808,0.55874,0.43118,0.30364,0.30351,-0.76761,-0.66558,-0.15553,-0.13005,-0.027962,0.25261,0.43109,0.27813,0.63521,0.22702,-0.38502,-0.48706,0.329,-0.33402,0.048598,0.099644,-0.25749,-0.53801,-0.5891,-0.053525,0.12498,0.68603,0.76267,-0.002436,0.32919,0.4822,-0.79312,-0.92062,-0.51253,0.27804,0.6606,0.22712,0.60965,-0.38508,-0.43598,-0.027974,0.023029,-0.30854,-0.30861,0.22699,0.17604,0.99234,0.60978,-0.078917,-0.53801,-0.41058,-0.05358,-0.61455,-0.28306,-0.002516,0.40558,-0.053464,-0.35949,0.27811,0.27811,-0.10444,-0.46155,0.20155,0.50757,0.48211,0.25255,0.074062,-0.53803,-0.28298,-0.18097,-0.20651,-0.41061,-0.25752,0.074062,0.43108,0.20156,0.45666,-0.10444,-0.1045,-0.15555,-0.81865,-0.66555,0.55864,0.50769,-0.027962,0.25071,0.021195,0.0977,-0.23204,-0.33405,-0.10453,0.12501,0.22708,-0.002412,0.4311,0.50762,0.55867,-0.18094,-0.7676,-0.61457,-0.13004,-0.28303,0.023017,-0.002443,0.30361,0.35462,0.40565,-0.30854,0.073977,-0.053506,-0.027969,0.45664,-0.28305,-0.38507,-0.64009,0.074111,0.7883,0.22712,-0.2321,-0.23208,-0.10455,0.048463,-0.027901,0.20164,0.12509,0.20155,-0.10447,-0.35954,0.15056,0.1251,0.53315,0.22706,-0.23202,-0.53811,-0.28298,0.099583,0.53311,0.09965,-0.18101,-0.38507,-0.4616,-0.28312,-0.33403,-0.38496,0.3036,0.3801,0.55867,0.3291,0.32906,-0.002405,-0.12999,-0.10453,0.048585,-0.53803,-0.10452,0.048512,-0.002491,-0.15554,-0.15551,0.074087,-0.1045,-0.35951,0.023108,-0.02795,0.40561,0.55856,-0.02798,-0.58907,-0.35952,0.22718,0.2526,0.38008,-0.028023,-0.61465,-0.33401,0.35453,0.38007,0.22712,-0.2575,-0.28296,-0.15542,0.099473,-0.20646,0.023047,-0.12999,0.89023,0.12505,-0.078953,-0.51257,-0.46157,-0.079026,-0.027987,0.35461,0.15052,0.12505,0.43112,0.048561,-0.13001,-0.28295,-0.28298,-0.02798,0.3801,0.15057,-0.053525,-0.2065,-0.30852,0.022998,0.074026,-0.28297,-0.33402,0.43106,0.27806,0.81378,0.25261,-0.23205,-0.38508,-0.10449,-0.002448,-0.2829,-0.33404,-0.41051,-0.25751,0.17606,0.12513,0.074044,0.30353,0.43105,-0.53814,-0.18106,-0.10447,0.30359,0.60969,-0.41047,0.17604,0.2271,-0.4616,-0.38511,-0.028042,-0.4615,0.5843,-0.002418,-0.35955,-0.18103,0.30363,0.099515,-0.4616,0.074038,0.20153,0.17612,0.074087,0.099564,0.023047,-0.23199,0.15054,-0.10458,0.17605,-0.078966,-0.5635,0.30364,-0.15548,-0.027987,-0.027998,0.20156,0.099595,-0.0535,-0.25756,-0.30861,0.074008,0.15066,0.4567,0.58422,-0.10455,-0.61467,-0.69115,0.022974,-0.15552,-0.18098,-0.002436,0.17611,0.50771,0.048616,-0.053427,0.15056,-0.46153,0.15049,0.27805,0.074087,-0.20652,-0.41057,-0.23209,-0.30857,0.27803,0.38005,-0.027882,-0.18094,0.27817,-0.10445,-0.10444,-0.079021,-0.23207,-0.20658,0.023005,-0.33398,-0.078953,0.3036,0.074038,0.30362,0.30359,0.48209,-0.07899,-0.2065,-0.2831,-0.12999,-0.23202,0.25268,0.074111,0.074075,0.15054,0.2015,-0.28294,-0.35954,-0.30863,-0.053464,-0.078935,0.17612,0.63521,0.32903,-0.15558,-0.028066,-0.12995,-0.35951,0.15056,0.074026,0.04858,0.2271,0.50773,0.074106,0.17604,-0.30857,-0.25751,-0.43606,-0.20656,0.43103,0.35456,0.099588,0.30363,0.048567,-0.35948,-0.51248,-0.33404,0.099552,-0.0535,0.12499,0.50764,0.022986,0.50762,-0.43603,-0.25748,0.35466,0.40569,0.023047,-0.53814,-0.53812,-0.18105,0.17606,-0.028036,-0.41051,-0.12999,0.074124,-0.053421,-0.002454,0.22706,0.55865,0.22704,0.17608,-0.30852,-0.10435,0.58419,0.27811,-0.28299,-0.7422,-0.58921,-0.10455,-0.15558,-0.002418,-0.25743,0.35465,0.27811,0.099564,-0.181,0.07402,0.43109,-0.028029,0.35466,0.099595,-0.28302,-0.02798,-0.12998,0.023096,-0.25754,-0.25756,-0.002521,0.22706,0.22719,-0.15548,-0.18098,-0.23207,-0.079057,-0.30849,-0.002454,0.53318,-0.25749,-0.30856,0.15055,0.074075,0.43109,0.20159,0.15054,-0.30849,-0.56349,-0.10449,-0.078972,0.0741,0.1506,-0.18106,0.15051,0.022998,0.45662,0.38005,-0.12997,-0.38499,-0.23198,-0.12998,-0.002516,-0.079021,-0.181,0.27815,0.2781,-0.002423,-0.43606,-0.46158,0.12505,0.15056,0.27811,0.022992,-0.35953,0.023096,-0.002461,0.20155,-0.027974,-0.053488,-0.002454,-0.002454,0.2016,-0.078923,0.1251,0.25259,-0.28307,-0.41054,0.12503,0.17602,-0.25752,-0.18101,-0.1555,-0.15548,-0.25752,0.32912,0.22704,-0.027962,0.17606,-0.18105,0.074093,0.20171,0.27814,0.53312,-0.33409,-0.53811,-0.48711,-0.18098,0.60976,0.023047,0.3547,-0.28303,0.023005,-0.25762,-0.35964,-0.002521,0.22714,0.25259,0.1251,-0.46142,0.17609,0.38013,-0.002467,0.099473,-0.053549,-0.002491,0.40563,-0.002423,0.048659,-0.20652,-0.33402,-0.13,-0.20654,-0.15556,-0.25757,0.023017,-0.027889,0.15069,0.76277,0.15057,0.022961,-0.18105,-0.23206,0.27808,-0.35957,-0.078972,-0.027938,-0.18097,0.22714,0.35457,-0.1555,-0.33404,-0.33396,0.099564,0.15049,-0.002491,0.17606,-0.002381,0.12512,0.023029,-0.181,-0.23204,0.023017,0.048482,-0.027993,0.048561,0.12512,0.023059,-0.002374,0.25255,0.023017,-0.28307,-0.053488,-0.41061,-0.15554,-0.12995,-0.027944,0.048549,0.2781,-0.078947,-0.23194,-0.002461,-0.15548,0.048506,0.3036,0.58413,0.30362,-0.12999,-0.33403,-0.053476,0.4056,-0.38503,-0.13002,-0.53811,-0.46159,0.048512,0.15056,-0.18095,0.30363,0.30361,0.55867,0.45664,-0.25754,-0.43616,-0.71666,0.023096,0.20167,-0.30843,0.12505,-0.053562,0.7116,-0.23205,-0.10451,-0.61457,0.099588,1.7066,-0.053451,-0.4871,-0.3596,-0.48711,0.074002,-0.10453,-0.61461,0.17603,0.07413,0.71178,-0.20643,-0.46156,-0.35954,0.048487,0.15052,-0.002467,-0.20652,0.35454,0.023114,-0.35944,0.38017,-0.2065,0.099497,0.099497,-0.23208,-0.18106,-0.81866,-0.0535,0.5332,0.50775,0.048604,-0.23199,-0.18099,-0.18103,-0.30858,-0.18109,-0.078996,0.2016,0.81375,0.48223,-0.002405,-0.053537,-0.23205,-0.79312,-0.35957,-0.20652,-0.079045,0.099521,-0.053415,0.60971,0.12508,0.25262,0.15057,0.048506,-0.46161,-0.18103,-0.07899,-0.232,0.45675,0.099546,-0.2575,-0.28303,-0.053506,0.15049,-0.15553,-0.35947,0.099583,0.048549,0.25259,0.20161,-0.027944,-0.12999,-0.38503,0.12504,-0.23205,0.35467,-0.053525,0.15058,-0.028005,-0.053421,-0.078953,-0.20653,-0.12999,-0.13008,-0.079057,-0.41054,0.35458,0.099626,0.17609,-0.28297,0.32912,0.20163,-0.053439,-0.35956,0.073995,-0.078996,0.32914,0.32903,0.07402,-0.15549,-0.002405,0.25259,-0.15541,-0.33406,-0.38505,-0.20652,-0.20649,-0.23197,0.5586,0.53315,0.4311,-0.078984,-0.38502,-0.283,0.15056,-0.15553,-0.2321,-0.2066,-0.28302,0.074106,0.09965,-0.1044,0.15066,0.22704,0.22707,0.35453,0.25253,-0.053506,-0.10445,-0.43607,0.12503,-0.027974,0.22721,0.25266,-0.28308,-0.43608,-0.20655,0.023035,0.22715,-0.33404,-0.15558,-0.053476,0.048622,0.6607,0.22702,-0.38508,-0.28305,-0.13001,0.3036,0.38014,-0.20642,-0.41048,-0.10449,0.32908,0.48203,0.27805,0.25254,-0.28307,-0.41047,-0.12993,-0.10447,0.074057,-0.20649,-0.48706,0.27805,0.20154,-0.23197,0.12507,0.2015,0.15049,0.76273,0.15062,-0.23198,-0.15548,-0.30858,-0.35955,-0.28303,0.40563,0.40569,0.17612,-0.002516,-0.053506,-0.23201,-0.28306,-0.23201,0.32913,0.30355,0.023078,-0.15549,-0.18102,0.023023,-0.35951,0.27809,0.55856,-0.487,-0.20638,0.71178,0.43114,0.074069,-0.35964,-0.43615,-0.25762,-0.46163,-0.10453,0.50765,0.099644,-0.02792,0.09954,0.048573,0.074124,0.023096,0.12508,-0.13,0.0485,0.20158,-0.079014,-0.20652,-0.3851,-0.35961,-0.334,-0.002479,0.55871,0.40569,0.27812,0.17601,-0.23199,-0.53808,-0.12999,0.20153,0.3802,-0.027974,-0.053549,-0.74214,0.50765,0.1761,-0.15549,0.32901,-0.33402,-0.20655,-0.15546,-0.35953,0.22711,-0.10439,0.20165,-0.002479,0.099528,-0.028023,0.099528,0.32908,0.20158,-0.20653,-0.23205,-0.23201,0.63532,0.53318,0.63513,-0.61462,-1.0993,-0.89521,0.40565,0.40572,-0.1045,-0.053537,-0.10451,-0.20652,-0.35949,0.17607,0.35463,0.78813,0.12509,-0.7675,-0.18089,0.35467,0.15051,-0.10459,0.3291,0.48204,-0.43608,-0.58903,-0.23207,0.43112,-0.002479,-0.20647,-0.46154,0.176,0.27804,0.12514,-0.48699,0.048567,-0.20654,-0.10448,0.32918,-0.18097,-0.2065,0.20153,0.4056,0.048482,0.17607,0.43103,0.17603,-0.18089,-0.3085,-0.30848,-0.33404,-0.053488,-0.053488,-0.20655,0.048512,0.48211,0.66074,-0.4105,-0.48703,-0.30855,-0.13001,-0.00251,-0.28302,0.048555,0.27802,0.35461,0.22712,0.30365,-0.15546,-0.002497,-0.28302,-0.053476,-0.053409,0.43123,0.099515,-0.20658,-0.18103,-0.028054,-0.2065,-0.053427,-0.18098,-0.15548,-0.13,0.07402,-0.002418,0.35461,0.4056,0.53315,-0.25753,-0.25751,-0.027993,-0.25761,-0.35952,-0.64001,0.30363,0.12513,-0.15545,-0.13001,0.17601,0.12502,0.048536,0.60965,1.2729,0.32914,-0.38509,-0.66571,-0.66568,-0.33412,0.27817,0.32917,-0.12996,-0.3596,-0.28307,-0.053446,0.50771,0.099601,-0.18103,-0.20652,-0.10448,0.12509,0.35461,0.048512,-0.078972,0.022998,-0.46156,0.048536,0.12508,0.15054,0.25259,0.048598,-0.30854,-0.51258,-0.002479,0.25262,0.20164,0.3546,0.048585,-0.33404,-0.25762,-0.1555,-0.25753,-0.30856,-0.46152,0.27809,0.099515,-0.053451,0.15057,0.2271,0.27814,0.40563,0.048561,-0.23204,0.32905,0.22712,-0.48702,0.048573,-0.25753,0.02298,-0.58907,-0.18098,-0.23203,-0.027987,0.15055,0.38015,0.15055,0.32908,0.2526,0.12503,-0.43602,-0.2575,0.099601,-0.1045,-0.18104,-0.46161,-0.15552,1.2219,0.30364,-0.0535,-0.2065,-0.33404,-0.25754,-0.46157,-0.20647,0.4821,0.07402,0.074093,-0.30847,0.099601,0.023072,0.22709,0.17606,0.17607,-0.028023,0.53317,-0.13001,-0.053476,-0.23204,-0.61462,-0.002467,0.023035,0.15056,0.4312,-0.43597,-0.283,-0.13,-0.028042,0.15058,0.12503,0.30358,-0.12998,0.048555,0.22706,0.50762,-0.23198,-0.64003,-0.20652,0.27808,0.43104,0.32908,-0.12998,0.35468,0.17609,-0.10445,-0.61458,-0.66562,-0.079045,-0.35955,-0.002472,0.32915,0.35465,0.40568,-0.053519,-0.3341,-0.33409,0.20152,0.15059,0.35464,0.099583,-0.027944,-0.25749,-0.18103,0.099515,-0.10449,0.20158,0.17605,-0.30852,-0.002479,0.099546,-0.41049,-0.12991,-0.078917,0.78819,-0.027998,0.02301,-0.25754,-0.13002,-0.18107,-0.053537,-0.10444,0.17611,0.30369,-0.23198,-0.23204,-0.46161,-0.35959,0.15051,0.40559,0.35459,0.40574,-0.25742,0.96683,0.73716,-0.46159,-0.94623,-0.84424,-0.30856,-0.20653,0.27815,1.0178,0.3292,-0.23201,-0.3851,-0.46163,-0.43607,0.53306,0.40561,0.43115,0.17603,-0.23197,-0.053366,0.048598,-0.078972,-0.18105,-0.053531,-0.002497,0.35456,-0.053458,-0.48699,0.12509,0.074044,0.074013,0.45666,0.1251,0.048536,-0.51263,-0.028018,0.15052,-0.078953,-0.25753,-0.20644,0.023023,-0.053488,0.099528,0.20164,0.20164,0.023023,-0.02798,0.074087,-0.12997,-0.078947,-0.053482,0.02301,-0.13001,-0.12999,-0.20651,-0.30858,0.09954,0.023059,0.12512,0.2016,0.023035,-0.002516,0.048536,0.66075,0.023059,-0.58905,-0.00254,-0.181,0.099552,-0.20647,0.048585,-0.13004,-0.002516,-0.23205,-0.18095,0.43116,0.1506,0.27805,0.099521,-0.33403,0.048567,0.22708,0.22717,-0.028011,-0.5126,-0.23198,-0.053439,0.25261,-0.20652,-0.2065,0.30358,0.09951,-0.10447,0.30353,0.25256,0.22712,-0.25748,-0.35949,-0.25752,0.074057,0.63514,0.27813,-0.25748,-0.35956,-0.35955,0.048458,-0.053506,-0.18098,0.38011,0.32912,0.22712,-0.23201,-0.20651,-0.078959,0.22705,0.023041,-0.12998,-0.23196,-0.18101,0.15059,0.38007,0.17607,-0.10449,-0.33404,-0.23202,-0.079021,0.17606,-0.20648,0.1251,0.55864,0.099552,-0.002503,-0.13001,-0.35954,-0.25752,-0.12999,0.30371,0.048647,0.3291,-0.002497,-0.079014,-0.35961,-0.05347,-0.46161,-0.28308,0.048487,0.30355,0.43116,0.20164,0.15064,-0.078972,-0.23202,-0.18099,-0.23193,-0.027944,-0.078966,-0.2065,0.38003,-0.053482,-0.079008,0.099515,0.15045,-0.027987,0.17607,0.30361,0.20164,-0.38499,-0.30851,-0.15543,-0.30854,-0.15549,-0.10451,0.25255,0.6352,0.25257,-0.15554,-0.30854,-0.25756,-0.13003,-0.385,0.20161,0.45666,0.35465,0.58422,-0.13002,-0.079045,-0.38508,-0.30859,-0.30851,-0.027882,0.38014,0.60966,0.20158,-0.23202,-0.41061,-0.33409,0.09954,0.22712,0.1506,-0.10439,-0.15547,0.023005,0.20148,-0.23199,-0.38503,0.17607,0.30356,0.15059,-0.12999,0.27812,-0.18097,-0.002479,-0.079039,0.048518,0.048549,-0.41052,0.099608,0.074087,0.6862,0.27812,-0.38505,-0.46167,0.25251,0.125,-0.69111,-0.15549,0.25265,0.53327,0.55876,-0.027931,-0.30859,-0.41064,-0.053562,-0.002491,0.17611,0.099588,-0.20646,-0.002454,0.12504,0.048506,-0.15549,-0.15553,-0.027931,0.35458,0.074087,-0.12998,0.2271,0.15059,0.074062,-0.053476,-0.15551,-0.18105,0.022992,-0.15553,-0.28305,0.023041,0.17609,0.074167,0.02309,0.048598,-0.12998,0.17603,-0.2065,0.20149,1.0688,0.40561,-0.078917,-0.33409,-0.43614,-0.66565,-0.51262,-0.30856,-0.25745,0.023078,0.30361,0.40566,0.32914,0.15059,-0.30847,0.17608,0.40561,0.53312,0.023059,-0.33405,-0.4106,-0.30858,-0.33405,-0.10447,-0.30852,0.099583,0.15059,0.43115,0.2271,0.20151,-0.10453,-0.41057,0.099559,0.099583,-0.10444,-0.00243,-0.43608,0.63522,0.22713,-0.10453,-0.20652,-0.33412,0.17602,-0.002491,-0.07891,-0.28295,-0.12995,0.20159,0.20155,0.27807,0.30351,0.35456,-0.15547,-0.027938,-0.053446,-0.18098,-0.41053,-0.028018,-0.078953,0.2271,0.023078,0.12504,0.17604,-0.028011,-0.078959,-0.002448,0.27812,0.048518,-0.15548,-0.15546,-0.28309,0.17603,0.048531,-0.15546,0.25263,-0.053421,0.12502,-0.181,0.15056,0.099497,0.60968,-0.078941,-0.23194,-0.38504,-0.25758,0.023035,-0.05347,0.30358,-0.12999,-0.02798,-0.053451,0.074044,0.25259,-0.078996,-0.027938,-0.10443,-0.46154,-0.25749,0.09954,0.17603,-0.15553,0.32911,-0.028005,0.15055,0.20155,0.22707,-0.12993,-0.15551,-0.18103,-0.027974,0.20161,-0.46151,-0.053415,-0.02792,0.32905,0.099552,-0.079026,-0.002516,0.48207,0.20157,-0.33399,-0.20649,-0.23201,-0.12999,-0.053433,-0.35947,-0.33401,0.12504,0.3036,0.40557,0.32902,0.15052,-0.078941,-0.00243,0.25259,-0.15548,-0.20651,-0.23204,0.55869,0.099668,-0.1045,-0.41057,-0.56361,-0.30855,-0.00257,-0.181,-0.38499,0.45666,0.35465,0.45662,0.12499,-0.002443,-0.283,-0.002467,0.048585,0.09954,0.074038,-0.41054,-0.027998,-0.1045,-0.13001,-0.078928,-0.053488,0.023047,0.074081,0.074075,-0.07899,0.22704,0.22709,-0.10452,0.12505,-0.002443,0.12506,0.20167,0.099681,-0.35956,-0.46164,-0.64021,-0.38504,0.32912,0.48213,0.023023,0.1506,-0.283,-0.002467,0.35462,0.20158,-0.027962,-0.18101,-0.15547,0.2016,0.25257,0.15058,0.38007,0.15057,-0.33404,-0.28303,-0.079014,0.20155,-0.232,-0.41051,-0.51249,-0.15546,0.68615,0.71169,0.30368,-0.53809,-0.30861,-0.027993,0.099595,0.20159,-0.002503,-0.20655,0.023072,-0.283,0.048616,-0.002485,0.58407,-0.10451,-0.23197,0.17603,0.48209,-0.15542,-0.25745,-0.12989,-0.20647,-0.13007,-0.28305,0.099528,0.55868,0.048549,-0.028018,-0.15555,-0.15554,-0.23199,0.15061,0.2271,0.30355,0.099503,-0.078935,-0.30846,-0.15543,-0.002467,0.17602,0.048543,0.099546,-0.078972,-0.02792,0.25261,0.12507,-0.25755,-0.18104,0.32905,0.074002,0.09954,-0.078923,-0.46149,0.023005,-0.00243,0.32912,0.38011,0.048487,0.099546,-0.232,-0.20652,-0.15551,-0.12998,0.20164,-0.002405,-0.02798,-0.002521,-0.053482,-0.181,0.099564,-0.12999,-0.18099,-0.027956,0.25254,0.30361,0.17606,0.022998,0.023023,-0.25751,-0.28298,0.023059,-0.053439,0.048549,0.12507,-0.181,0.17609,-0.18105,0.048487,-0.23203,0.2016,0.30364,0.30358,-0.41052,-0.66561,-0.12999,0.099521,0.099528,0.17609,0.1251,0.22706,0.32913,-0.28297,0.099546,0.023017,-0.15553,-0.20649,-0.002454,0.22704,0.22707,-0.002448,-0.20646,-0.33398,0.20153,0.023005,-0.28306,-0.23203,0.12503,0.074087,0.40571,0.43121,-0.002497,-0.25754,-0.58911,0.022961,-0.079033,0.17609,0.17614,0.17611,0.12506,-0.10448,-0.02798,-0.23199,-0.027962,0.35459,-0.078996,-0.078977,0.022998,-0.13005,0.17606,0.25267,0.048634,-0.12995,-0.51256,0.30349,0.15049,-0.38505,-0.33399,0.20157,0.48214,0.25259,-0.027969,-0.10441,-0.283,-0.079021,-0.10449,-0.232,0.023005,0.048487,0.27808,0.48219,0.17607,-0.28298,-0.181,0.38008,0.30358,-0.002454,-0.33402,-0.028042,-0.30858,0.099601,-0.027895,-0.027876,-0.15549,-0.35957,0.023017,0.048543,0.40559,0.35462,0.20162,0.17612,-0.02798,-0.33404,-0.18105,0.22703,0.073971,-0.078959,-0.12998,-0.28298,-0.12991,0.099613,0.09957,-0.30851,0.023023,0.048549,0.32908,0.3801,-0.13007,-0.18105,-0.10452,-0.2575,-0.41044,-0.027901,-0.027876,0.20153,0.15051,0.048525,0.022961,0.12505,-0.002485,0.40571,0.43116,0.074051,-0.2575,-0.74216,-0.20654,-0.07899,0.43116,0.3291,-0.2065,-0.053482,0.22705,-0.30848,-0.053439,0.27809,0.17605,0.02301,-0.20653,-0.10446,0.1251,0.45664,0.15058,-0.25749,-0.20653,-0.43605,-0.07899,-0.18099,-0.028011,-0.028011,0.63517,0.55867,0.023078,-0.30851,-0.078923,-0.18101,-0.43604,-0.13,0.022998,0.43104,0.30359,-0.15549,-0.41046,0.17607,0.2016,0.12504,0.22708,0.30361,-0.23202,-0.028029,-0.1555,-0.487,-0.027969,0.20158,0.12504,0.30356,-0.23204,-0.053495,0.023084,-0.2065,0.15057,0.099546,-0.027974,-0.18099,-0.053433,-0.232,-0.053525,0.12504,0.25259,0.27817,0.30356,-0.28302,-0.053519,-0.15549,-0.18099,-0.053513,0.43113,-0.07899,0.048549,0.30358,0.15054,-0.23198,-0.002443,-0.28298,-0.027938,0.20155,-0.079002,-0.053482,-0.30853,0.074013,-0.002485,0.099564,0.22711,-0.15546,-0.23203,0.2271,0.15057,0.099595,-0.13002,-0.18103,0.099552,-0.10447,0.2781,0.25256,0.15057,0.074062,-0.30851,-0.12994,-0.25753,-0.1045,-0.15551,-0.002461,-0.18097,0.074093,0.38007,0.15052,-0.12999,-0.002467,0.3801,-0.002479,0.22706,0.023023,-0.10449,-0.18094,-0.12994,-0.18101,0.15054,-0.3086,0.074051,-0.053451,0.53319,0.32917,0.12503,-0.41051,-0.20652,0.15054,0.048518,0.25255,0.15053,0.15054,-0.15548,-0.38501,-0.027931,0.0741,0.023041,-0.053525,-0.1555,-0.33404,-0.1555,0.22708,0.76271,0.15062,-0.18099,-0.30849,-0.002491,0.32901,0.27808,-0.25751,-0.20653,-0.23199,-0.12994,0.22712,0.099637,0.023041,0.048512,-0.15553,0.074051,0.3036,0.35459,-0.10451,-0.10453,-0.027956,-0.12998,-0.002436,-0.30854,-0.13,-0.38506,0.023029,0.25259,0.27815,0.38016,-0.2065,-0.30854,-0.12999,-0.15553,0.022998,0.25256,0.48215,0.43115,-0.10449,-0.28302,-0.33404,0.12505,-0.23195,-0.2575,0.12502,0.023023,0.22704,-0.02792,-0.15545,0.25262,0.02301,-0.002461,0.099559,0.48209,-0.15548,-0.33405,-0.053506,-0.053519,0.38012,-0.15546,-0.25748,-0.15549,-0.25751,0.17604,0.12505,-0.05347,-0.002467,0.27803,-0.002491,-0.12998,-0.10441,0.25263,0.15057,0.2271,-0.35957,-0.23201,-0.079008,0.30359,-0.002467,0.22708,-0.079021,-0.1555,-0.15545,-0.15548,-0.027962,-0.028005,-0.027969,0.32908,-0.23201,0.099577,0.09954,-0.027938,0.32918,-0.02795,0.20155,0.022998,0.02301,-0.4871,-0.079014,0.048531,0.15054,-0.30846,-0.15545,0.12509,0.2781,-0.053488,0.2526,0.176,-0.10449,-0.078959,-0.15546,-0.2065,-0.078959,0.25255,0.27806,0.12503,-0.35952,-0.28301,0.15056,0.20159,0.15064,-0.33405,-0.15549,0.22705,0.53312,-0.079021,-0.053446,-0.12996,0.12507,-0.027974,0.023054,-0.33405,-0.23201,-0.23197,0.25255,0.60965,0.17608,-0.079033,-0.1555,-0.078977,0.12509,0.38018,-0.33399,-0.487,0.30358,0.099546,0.048531,0.30357,-0.002546,-0.028011,-0.25749,-0.46153,-0.20644,0.023047,0.099528,0.12504,0.32909,0.17609,0.15059,0.4056,-0.10449,-0.078984,-0.12998,-0.1045,0.22708,-0.15553,-0.02798,-0.13,-0.18105,0.12505,0.074124,0.60973,0.66075,-0.41057,-0.56357,-0.38508,-0.38511,-0.028018,-0.10451,0.38011,0.20158,0.20162,0.09957,-0.15547,0.074008,-0.13001,-0.10443,0.45666,0.45661,0.048567,-0.20646,-0.5381,-0.027901,0.25257,0.22704,0.17597,-0.078972,-0.053525,-0.25753,-0.35954,0.023047,-0.027956,-0.027882,0.15065,0.40564,0.12503,-0.10451,-0.053495,0.099503,0.048585,-0.181,-0.053488,-0.12998,0.12505,0.12504,-0.13001,-0.28301,-0.181,0.17607,0.12508,0.2781,0.32905,-0.12996,-0.12998,-0.078923,0.27813,0.3546,-0.15555,-0.28308,-0.10447,-0.12999,0.15057,0.25258,-0.002485,0.12501,0.099564,-0.078959,-0.18097,-0.35952,-0.15548,-0.027956,0.20156,-0.027938,-0.25745,0.17606,0.35453,0.32905,0.074026,0.048518,0.048536,0.20159,0.0741,-0.15543,-0.33399,-0.30852,-0.12998,-0.13001,-0.002503,-0.028047,-0.12998,-0.002454,0.35465,-0.027907,0.3291,0.20155,0.30361,-0.18104,-0.38509,-0.232,-0.078935,-0.053451,-0.12996,-0.2065,-0.078966,0.27807,0.38011,0.12507,0.22705,-0.07899,-0.18098,0.50771,-0.027925,-0.053433,-0.13001,0.176,-0.3341,-0.28308,-0.38508,-0.027969,0.074062,0.023096,0.27813,0.02309,0.048567,0.12504,-0.20647,0.20159,0.17604,0.048543,-0.07899,-0.13,-0.13001,-0.20647,0.20158,0.38006,0.12499,0.023047,-0.10449,-0.30847,-0.64005,0.15059,0.099583,-0.1554,0.76273,0.53311,-0.00254,-0.25757,-0.38508,-0.35961,-0.23201,-0.002485,0.023084,0.023103,-0.12995,0.17606,-0.15549,0.1251,0.38007,0.22705,-0.1045,-0.053439,-0.12995,0.20161,0.099552,0.2015,-0.053525,-0.30853,-0.10446,-0.002448,-0.25753,-0.25751,-0.13001,0.15059,0.20161,0.38005,0.30361,-0.46154,0.12505,-0.002479,0.099577,-0.053464,0.023035,-0.20646,-0.33402,-0.181,0.22707,0.099546,0.099546,0.023041,-0.12997,0.023029,0.17604,0.048549,-0.053451,0.40558,0.099534,-0.23198,-0.05347,0.048555,-0.12994,0.17612,-0.10454,0.1761,0.074033,-0.079026,-0.15554,-0.027993,-0.0535,-0.078984,-0.05347,0.12507,-0.12993,0.12518,0.12514,0.023029,-0.053519,-0.053506,-0.078984,0.25252,0.20158,0.15052,-0.02795,0.04858,-0.28298,-0.1555,0.12502,0.074026,-0.079008,-0.10445,0.3291,0.09954,0.22707,0.023035,-0.18101,-0.30849,-0.56354,-0.18095,-0.20645,0.40562,0.074051,0.32909,0.25252,0.074013,0.27805,0.12502,-0.002485,-0.18101,-0.12997,-0.12999,0.074106,-0.002443,0.17611,-0.078935,-0.02798,-0.002485,-0.18103,-0.20653,0.4821,0.023017,0.099564,0.15066,-0.078941,0.48213,-0.30855,-0.18109,-0.15551,-0.053488,-0.232,0.023017,-0.41043,0.048683,0.48212,0.25256,0.22699,0.20145,0.15051,0.09954,0.099515,-0.20651,-0.15547,-0.53796,-0.25746,0.25265,0.023078,-0.078977,-0.18103,0.099497,0.45658,0.048555,0.25262,0.40567,-0.20647,-0.10455,-0.23209,-0.053568,-0.28306,-0.23198,-0.027901,0.074093,0.22714,0.023084,-0.25749,-0.053451,-0.027998,0.074002,0.048482,0.15054,-0.002497,0.15059,0.30369,0.27812,0.048592,-0.1045,-0.18102,-0.30855,-0.43607,-0.053525,-0.002467,-0.02798,0.20161,0.63523,-0.027956,-0.25749,-0.181,-0.10453,-0.002497,-0.25753,0.099528,0.20159,0.074106,0.17607,0.12504,0.048585,-0.10452,0.40555,-0.079014,0.023047,-0.43603,-0.027913,0.023047,-0.10447,-0.15548,-0.027907,0.20159,-0.079002,-0.079026,-0.13007,0.25255,0.20155,-0.10445,-0.12996,-0.23202,-0.027931,0.17615,0.2781,-0.2575,-0.20653,-0.15556,-0.18105,0.048536,-0.02798,0.17609,0.30363,-0.078917,0.048536,0.12506,-0.053451,-0.079026,-0.23202,-0.027969,-0.46149,-0.027969,0.12507,0.074044,0.32906,0.12504,0.20157,-0.18102,0.023023,-0.1045,-0.053464,-0.12995,-0.12998,0.17603,0.12509,0.66075,0.12507,0.048525,0.35461,-0.48715,-0.69114,-0.18105,0.099588,0.12517,0.17609,-0.078966,-0.002491,0.048482,-0.078972,0.17607,0.22709,-0.053464,0.15058,0.09957,-0.15551,-0.18097,0.099552,0.022998,-0.12999,-0.079033,0.048506,-0.10449,0.15065,0.048604,0.20153,-0.23204,-0.35956,-0.2065,-0.07899,-0.12993,0.2271,0.099564,0.023059,0.15055,0.20156,0.45656,0.30362,-0.027944,-0.002479,-0.181,-0.13002,-0.07899,-0.078959,-0.25751,0.099528,-0.15553,-0.20653,-0.2575,-0.053433,0.73725,0.96681,-0.002497,-0.00243,-0.33404,-0.28308,0.048458,0.17603,-0.15548,-0.10448,-0.35952,-0.18099,0.35458,-0.15543,0.17612,0.27807,-0.027969,-0.053495,0.20155,0.20153,-0.18098,-0.10447,-0.027938,-0.053464,-0.12998,0.074038,0.074002,0.30363,-0.027987,-0.0535,0.17609,-0.5891,-0.35956,-0.13,-0.12994,0.20159,-0.18094,0.074038,0.45661,0.30358,-0.02798,-0.10451
-0.07899,-0.078947,-0.15549,-0.12996,-0.12998,0.048549,-0.078953,0.023059,-0.02798,-0.053544,0.20156,-0.1045,0.12505,0.22705,0.09957,-0.23199,0.023078,-0.15546,-0.027956,-0.13002,0.099552,-0.027987,0.048543,-0.23201,0.12505,0.15056,0.12507,-0.25746,-0.05347,-0.10449,0.074033,0.023029,0.25254,-0.002472,-0.002436,-0.12996,0.048561,-0.078947,-0.002479,-0.078996,0.074038,0.023029,-0.002472,-0.002472,0.099559,-0.002472,0.023059,-0.027962,-0.20647,-0.23203,-0.027962,0.17605,-0.002467,0.099546,-0.053451,-0.053464,-0.10446,0.12506,-0.053488,0.074013,-0.053458,-0.002479,0.099552,0.048536,-0.053458,-0.10447,-0.10445,-0.12995,-0.053495,0.074026,-0.02798,0.099559,-0.027969,0.099552,0.048555,0.099552,-0.078966,-0.002454,-0.12999,0.12503,-0.078984,-0.002472,-0.15549,-0.053495,-0.002461,0.15057,0.048561,-0.10445,-0.053488,0.27804,-0.25748,-0.23193,-0.18092,-0.12993,-0.002412,-0.12998,-0.027998,0.099473,0.25245,0.3545,0.35451,0.17601,-0.053495,-0.18099,-0.12996,-0.10445,-0.053446,0.12507,0.20156,0.099521,0.048561,-0.10445,-0.10441,-0.053415,-0.05339,-0.12993,-0.15538,-0.28295,-0.15546,-0.079033,-0.00251,0.073959,0.048469,0.099448,0.15052,0.12499,0.12504,-0.002485,-0.027956,-0.028005,-0.053464,-0.027962,0.074093,0.023059,-0.078892,-0.10445,-0.10441,-0.12996,0.17605,0.15051,-0.12998,-0.002485,0.074013,0.023029,0.048531,-0.053446,-0.20649,-0.12996,0.022992,0.12501,0.073989,-0.002467,0.048518,0.099564,-0.10445,-0.10445,-0.28297,-0.28295,0.074038,0.048512,0.074033,0.074038,-0.002472,0.048543,0.023041,0.099546,0.074075,0.074033,0.023029,-0.10453,-0.10447,-0.07899,-0.23196,-0.053464,0.023059,0.12506,0.15059,0.099552,0.048543,-0.13001,-0.10447,-0.002467,0.023054,0.074026,-0.002461,-0.053458,-0.12996,-0.078966,0.023005,0.048512,0.17602,0.20156,-0.002485,-0.078959,-0.12995,-0.15546,-0.078953,-0.053451,-0.078977,0.022998,-0.027956,-0.002485,-0.053451,-0.002479,0.023065,-0.053476,0.12507,0.25255,0.15054,-0.13001,-0.20647,-0.10449,0.023059,0.099534,0.023072,0.074038,-0.12995,-0.12998,-0.10447,0.048512,-0.027969,0.12504,0.09954,0.20158,-0.053476,-0.002436,-0.12997,-0.053439,-0.02798,-0.23202,-0.002485,0.074033,0.20155,0.099559,-0.027944,0.048555,-0.10444,-0.053476,-0.15548,0.099497,0.15054,-0.02798,-0.02795,-0.002443,0.023054,-0.10447,-0.002461,0.048561,0.0485,-0.079002,-0.2065,-0.15545,-0.078984,0.20158,0.15057,0.023047,0.048555,0.074057,0.048512,0.048518,0.048525,-0.027956,-0.053482,-0.02795,0.023035,0.099564,-0.053476,0.048555,-0.1045,-0.078984,-0.13,-0.10445,0.023029,0.17607,0.15054,0.074062,-0.027969,-0.027944,-0.078984,0.099528,-0.05347,-0.12998,0.074051,-0.078984,-0.002443,-0.053482,0.17607,0.048536,0.20155,-0.028036,0.023041,0.099534,0.023059,-0.10449,-0.18095,-0.10448,-0.078935,-0.15547,-0.10447,-0.002521,0.048525,0.074013,0.12504,0.023054,-0.002436,0.048531,0.023059,-0.002467,-0.027956,-0.15551,-0.05347,0.023054,0.023023,0.20158,-0.078972,0.15057,0.20156,-0.12996,-0.12996,-0.13,0.074062,0.02301,0.048555,0.023017,0.074062,0.099552,0.074062,-0.078959,-0.2575,-0.028005,-0.078977,-0.027987,-0.027987,0.15057,0.12505,-0.078972,0.074075,-0.053476,-0.181,-0.002503,-0.002461,-0.053482,-0.23201,-0.053446,-0.002472,0.17609,0.12507,-0.027944,0.023035,-0.25754,-0.027974,-0.079002,0.12505,0.023017,0.12509,0.074044,-0.078947,0.048536,0.12504,-0.002516,-0.05347,-0.15548,0.048549,0.12505,0.074057,0.023047,-0.12998,-0.28295,-0.23199,-0.002479,0.048531,0.023035,-0.002472,0.17604,0.023059,0.048543,0.20156,-0.02795,0.048512,-0.053476,-0.053482,-0.027956,0.15056,-0.002467,-0.078966,-0.20649,0.12512,-0.078972,0.023029,0.099479,0.074033,0.099546,0.023047,-0.027938,-0.053458,0.074057,-0.25748,-0.23196,-0.20649,-0.002485,0.35456,0.074038,-0.078996,-0.12999,0.12505,0.20155,0.074044,-0.12994,-0.027974,-0.027962,-0.12999,-0.18098,-0.027962,-0.15549,-0.25746,0.17608,0.023035,0.074062,0.32908,-0.00251,-0.079045,-0.18099,0.40557,0.25251,-0.12998,-0.20652,-0.078935,-0.10442,0.12512,-0.027987,-0.002467,-0.10447,-0.25746,-0.10448,0.074093,-0.079008,0.40556,0.43108,-0.23204,-0.028011,-0.10451,-0.20649,0.48214,0.20156,-0.078959,0.27812,-0.10443,-0.23199,-0.13007,-0.28308,0.099473,0.17612,-0.33397,-0.5125,-0.18096,0.07402,0.12505,0.25264,-0.23203,0.50755,0.17608,0.53311,-0.05347,-0.10449,-0.079014,-0.002418,-0.13001,-0.33399,0.048543,0.17612,0.023133,0.023047,-0.2576,-0.58911,0.048525,0.15046,-0.15549,0.12504,0.94124,0.50765,-0.18096,-0.53804,-0.48703,-0.15546,-0.027956,-0.0535,0.15062,-0.1555,0.35461,0.38011,-0.23202,-0.1556,-0.002491,0.27813,0.58422,-0.25748,-0.66562,-0.56359,-0.28302,0.35453,0.43108,0.15056,-0.10446,0.27814,0.58424,-0.43606,-0.58903,0.099626,0.40561,0.02298,-0.61463,0.20143,-0.028011,-0.66559,-0.078898,0.45666,-0.33385,1.1708,0.89025,-0.053544,-0.64016,-0.56366,-0.41064,-0.58913,-0.51257,-0.02792,0.86475,0.30366,0.17614,0.022998,-0.35954,0.099577,0.023005,0.50761,0.25259,-0.43598,-0.43601,-0.078984,-0.10458,-0.3851,0.073977,0.53317,0.71171,0.17605,-0.69106,0.1761,0.32915,0.09954,-0.33405,-0.63999,0.099546,0.53311,0.32907,-0.18108,-0.13009,-0.46159,-0.53806,0.78822,0.074093,0.17613,0.55864,0.45667,-0.28299,-0.35959,0.60957,0.023035,0.15068,-0.027858,-0.23197,-0.33409,-0.20655,-0.43609,-0.30855,-0.51261,0.099528,0.45659,0.2526,0.048555,0.2526,0.55864,-0.25749,-0.23196,0.83931,0.17606,-0.078996,-0.027969,-0.66562,-0.33404,-0.079026,0.45657,0.20155,-0.23202,-0.38509,-0.25759,0.32909,0.12509,-0.027938,0.55878,0.27812,0.12509,0.15052,-0.43598,-0.79313,-0.48713,0.20152,0.37999,-0.38497,0.25262,0.66066,0.3291,0.35456,0.25256,-1.1756,-0.18097,-0.181,0.20162,0.48214,0.17608,-0.232,0.6351,0.17607,-0.28308,-0.56362,-0.23205,-0.002369,-0.66559,-0.53804,-0.844,-0.38495,0.81369,1.4514,0.048451,0.37994,-0.10459,0.25261,0.048573,-0.027987,0.099588,-0.30847,-0.002418,-0.18103,-0.23205,-0.002521,-0.35946,0.27818,0.074111,0.20164,-0.07891,-0.028023,-0.20662,-0.33407,-0.027987,-0.053451,1.0941,0.022992,0.074013,-0.25749,-0.12989,0.89038,0.55868,-0.30851,-0.84424,-1.0737,-0.58909,-0.10456,-0.078935,0.023201,0.55866,0.76264,0.38001,0.022956,0.20152,0.12504,0.02309,-0.12995,-0.33383,-0.20644,-0.18101,-0.35954,0.53312,0.40555,-0.23217,-0.71666,-0.6656,0.30361,0.074087,-0.28295,-0.027956,-0.12995,0.17601,0.60962,0.22704,-0.10443,0.048585,0.43115,-0.002443,-0.30849,-0.18097,0.022901,0.17613,0.17606,-0.15554,-0.51256,-0.12992,0.58422,-0.30855,-0.76761,-0.92072,-0.43608,-0.002472,0.45667,0.83921,1.0432,0.38007,0.17618,-0.35947,-0.41054,-0.84413,-0.385,0.20152,0.048512,0.22707,0.58414,-0.13004,-0.2065,0.63512,-0.07891,-0.28293,-0.41049,-0.053537,0.12505,-0.30858,0.15046,0.074062,-0.35946,0.30359,-0.002516,0.09957,-0.63999,-0.002381,0.91561,1.0942,-0.30855,-0.58903,-0.20648,0.17608,-0.15538,-0.46153,-0.12995,0.35455,-0.3851,-0.10455,0.073989,0.023035,0.022998,-0.18096,0.099613,0.40571,0.30364,0.12505,0.02298,0.099515,0.048482,-0.23201,-0.58901,0.40561,0.38021,0.58415,0.50764,-0.10453,-0.7167,-0.9972,-0.74208,-0.053439,0.25258,0.17606,-0.12997,0.48217,0.68611,0.63499,-0.25761,0.04861,-0.1044,-0.56339,0.27817,0.048573,0.17602,-0.3086,-0.33412,-0.46161,0.12509,0.22713,0.71171,0.43107,-0.027956,-0.20655,-0.436,-0.53812,0.12501,0.38011,0.35475,0.60964,-0.6656,-0.94616,-0.33403,-0.053519,0.25264,0.35466,-0.18096,0.048525,0.15051,0.329,0.17606,0.27808,0.60956,0.25256,0.17612,0.15065,-0.99712,-0.66552,-0.33405,-0.15547,-0.56357,-0.46159,0.048549,0.58419,1.0432,0.30357,0.25262,-0.053562,-0.71662,-0.4871,-0.027987,0.68621,0.32915,-0.053433,-0.002467,-0.30852,-0.232,-0.28308,0.20154,-0.053293,0.91581,1.0687,0.048438,-0.66566,-0.86971,-0.6911,-0.74209,0.099546,0.5076,0.53315,0.048604,0.66057,0.40563,-1.0225,-0.078879,0.15068,0.27812,0.17592,0.15041,-0.002552,-0.079045,0.25261,0.15055,0.099608,-0.23192,-0.20642,-0.58912,-0.002583,0.35454,0.89016,0.35463,-0.35933,-0.61451,-0.23204,-0.46159,-0.027969,0.09951,-0.30856,-0.18105,0.32908,0.94124,0.12507,-0.3085,-0.053427,0.074069,0.86476,0.22699,-0.20661,-0.15553,-0.10444,-0.43601,0.20159,-0.028011,-0.18097,0.3547,0.50771,0.17602,-0.38506,-0.12998,-0.41055,-0.18096,0.7626,0.25261,-0.10455,0.099503,-0.48706,-0.20648,0.22707,-0.15551,0.27813,0.73722,-0.23202,-0.079033,0.022998,-0.79307,0.099644,0.022998,-0.23207,-0.41054,0.023023,0.58415,0.50769,0.81366,0.20152,-0.35956,-0.05347,-0.43596,-0.41049,0.38012,0.12503,0.12504,0.20147,-0.078996,-0.4615,-0.25749,0.074038,0.2525,0.15063,-0.15549,-0.23198,-0.053335,-0.002467,0.17603,-0.00254,-0.028005,-0.028018,-0.002412,-0.027974,0.20153,-0.15546,-0.64001,-0.43606,-0.002491,0.53312,0.25268,0.15072,-0.10449,0.17591,-0.1301,0.20153,-0.41059,-0.35954,-0.51265,-0.20653,0.45675,0.7629,0.78825,0.22706,-0.58913,0.22697,-0.51264,-0.30859,-0.2065,0.53323,0.48216,-0.23196,-0.41049,-0.12999,-0.00257,0.55862,-0.69111,-0.56361,0.63516,-0.002399,0.94139,0.58414,0.099515,-0.25761,-0.20662,0.3291,-0.002399,-0.51244,-0.53801,-0.41061,0.32905,-0.181,-0.05347,0.4821,0.023059,0.35465,0.3291,0.68615,0.30364,-0.002516,0.15065,0.43111,-0.079081,-0.053573,-0.46151,-0.61452,-0.84406,-0.028029,0.12509,0.25255,-0.002418,0.30361,0.17603,0.074087,0.25263,0.30361,0.073965,-0.079051,-0.078959,-0.23198,-0.078984,0.023072,-0.20647,0.12509,-0.10449,0.12503,0.278,-0.18101,-0.28295,0.3801,0.023065,-0.66551,-0.28295,-0.3341,0.30346,1.0178,0.60965,0.329,-0.4106,-0.81854,-0.53796,-0.48698,-0.43604,-0.10457,0.17604,0.20153,0.60967,0.3546,0.12508,0.27817,0.35465,0.50764,-0.3341,-0.5636,-0.25757,0.074013,0.048561,-0.232,-0.15545,0.22715,0.074124,-0.23198,0.17598,0.048433,-0.35964,-0.74209,0.35465,0.94129,0.58416,0.3291,0.022992,-0.35951,-0.30849,-0.56364,-0.38508,-0.15551,-0.23201,0.15056,0.48221,0.63515,0.20158,0.023096,0.32908,0.2271,-0.51253,0.048476,-0.053519,0.25248,-0.13008,-0.53805,-0.63997,-0.43598,0.048616,0.55861,0.40558,0.4821,0.17608,-0.10449,-0.43605,0.023047,0.38011,0.074069,-0.46149,0.30357,0.22706,-0.3851,-0.43609,-0.10456,-0.35955,-0.002394,0.38013,0.89027,-0.12995,0.40565,0.40556,0.30353,-0.61459,-0.53811,-0.56353,-0.385,-0.23197,0.099644,0.15068,0.12502,0.22699,0.38,0.32905,-0.25753,0.43108,0.30358,0.22722,-0.10439,0.2271,-0.43613,0.074038,-0.56357,-0.61465,-0.10452,-0.56355,-0.3085,0.2526,0.50766,0.22708,0.8392,0.12499,-0.2065,-0.079008,0.45661,0.27808,-0.002387,0.25276,-0.385,-0.33408,-0.53816,-0.10456,-0.30854,0.40565,0.17607,-0.10447,-0.385,-0.33398,0.12508,0.22712,0.22705,-0.13005,0.25251,0.048487,0.099546,0.048604,0.12514,0.023108,-0.078984,0.20157,0.20155,-0.30856,-0.4615,-0.6911,0.12507,0.30362,-0.25754,-0.30851,-0.46147,0.20154,0.48203,0.45652,0.99229,-0.027944,-0.385,-0.23196,-0.46153,-0.10451,-0.15551,-0.28304,-0.028036,0.83919,0.20159,0.099577,-0.25755,-0.33399,-0.30852,0.45672,-0.07899,-0.053446,0.048451,-0.30858,0.22705,0.15064,0.58414,0.35465,-0.30853,-0.46157,0.073995,-0.18101,0.022974,-0.25751,0.3802,0.27813,0.22712,-0.30851,-0.20647,-0.10458,-0.10449,-0.002485,0.099528,0.25252,0.09954,-0.18101,-0.12994,0.2526,0.074057,-0.053415,-0.053446,0.22712,-0.078977,0.25259,0.073989,-0.027962,-0.43609,-0.20647,-0.46161,-0.053513,0.074002,0.68622,0.5841,-0.20651,-0.41049,0.20159,-0.027956,-0.078977,-0.25749,-0.07899,0.25261,0.22715,0.71177,-0.10449,-0.38511,-0.079075,-0.002534,-0.13001,-0.078959,0.09954,-0.25753,-0.69101,0.43117,0.32908,0.22707,0.48207,0.074044,-0.56349,0.023084,-0.002485,0.12506,-0.232,0.048463,-0.20655,-0.25756,0.12504,0.099564,-0.15546,-0.10449,0.048573,0.48222,-0.20647,0.15059,0.40571,0.94126,-0.079118,-0.69122,-0.35966,-0.41063,-0.20647,-0.3084,-0.30841,-0.25754,-0.002491,0.50765,0.63512,0.81378,0.35461,-0.46155,-0.33405,-0.33407,-0.25749,0.73714,-0.23203,-0.4361,0.22711,0.27816,0.4312,-0.053549,-0.46159,-0.46153,0.048536,0.17605,-0.15548,0.12507,-0.23196,-0.25747,-0.10444,0.60963,0.35455,-0.002485,-0.18101,0.40561,0.22706,0.27813,-0.12998,-0.20653,0.20162,-0.61461,-0.053421,-0.30853,-0.002472,0.35467,0.27808,-0.41058,-0.10454,-0.15553,0.22711,0.53314,0.48222,-0.385,0.22701,0.023041,-0.35961,-0.41058,-0.28301,-0.15544,-0.002399,-0.002461,0.2781,0.074093,-0.20649,0.25257,-0.13,0.099534,-0.053458,0.43103,-0.028018,-0.58904,-0.078984,-0.18089,0.023084,0.50765,-0.18104,-0.05358,0.22705,0.3036,-0.053495,0.099564,-0.35954,0.074136,-0.10441,0.15056,0.20159,-0.028005,-0.48712,-0.38502,0.30356,0.099595,0.32912,0.25261,-0.181,0.30352,0.023017,0.27808,0.2016,-0.02795,-0.12998,-0.71658,-0.38501,0.27809,0.17611,0.17606,-0.28305,-0.33404,0.15057,1.0687,0.3036,-0.028036,-0.079051,0.074069,-0.76758,0.099583,0.40575,0.023065,-0.30861,-0.30858,-0.38504,-0.181,0.074013,0.1761,0.17607,0.55865,0.17609,-0.078972,-0.18097,-0.027956,-0.053464,-0.10456,0.023029,-0.28306,-0.76753,0.27811,0.78821,0.35464,0.099534,0.27803,-0.20654,-0.1045,-0.41054,-0.232,-0.078972,0.32914,0.20155,0.176,-0.23204,-0.33399,-0.46151,0.81377,-0.002387,-0.15553,-0.53811,0.7117,0.22705,-0.028047,-0.25759,0.35459,0.099588,-0.18092,-0.33402,-0.1045,-0.02798,0.099528,-0.02795,0.023035,-0.12995,0.12507,0.38013,-0.027925,-0.15551,0.022998,-0.10452,-0.002472,-0.28302,-0.28302,-0.10451,0.15051,0.22711,-0.1044,0.40566,-0.002461,-0.05358,0.43107,0.71173,0.0741,-0.002443,-0.74212,-0.69114,-0.53807,-0.35953,0.32915,0.099534,0.76269,0.22708,0.27812,0.022998,-0.25753,-0.48706,-0.02798,0.25256,0.27817,0.38018,-0.13,-0.027969,-0.18105,-0.35954,-0.028018,-0.12997,0.12501,-0.10445,-0.027901,0.099619,0.66065,0.53303,0.32905,-0.20654,-0.28298,-0.385,-0.43604,-0.15544,0.3547,-0.002412,-0.053568,-0.028072,-0.10456,0.099528,0.15054,0.17617,0.12508,-0.027969,0.074051,0.023029,0.227,-0.053439,-0.18099,-0.078953,-0.12996,0.22715,-0.23202,-0.23206,-0.002503,0.27806,0.022968,-0.33404,0.15052,0.38014,-0.18089,-0.25743,0.5332,-0.053482,-0.28305,-0.38507,0.22699,-0.15557,0.60963,0.45653,0.048616,-0.33399,-0.35945,0.12513,-0.33399,0.048561,0.25255,-0.13008,-0.18103,0.12499,0.048536,0.40565,0.25263,-0.41055,-0.28305,-0.4105,0.40559,-0.25755,-0.12998,0.074033,0.40566,0.30371,0.94138,-0.078935,-0.79317,-0.56372,-0.38514,-0.23212,0.25252,-0.027938,0.48221,0.40566,-0.15544,-0.23198,0.023072,0.074051,0.55855,-0.46161,-0.41054,0.048634,0.68624,0.12509,-0.13007,-0.35957,-0.46157,-0.05347,-0.028042,0.074013,-0.15549,0.099619,0.43122,0.12508,0.20166,0.17604,-0.41056,-0.53809,-0.00254,-0.028018,0.53313,0.50759,0.25257,-0.28288,-0.20639,-0.487,-0.25747,-0.48708,0.38002,-0.13012,0.17607,0.32908,0.22706,0.35462,-0.13,-0.10446,0.20158,-0.12999,0.09957,-0.15553,-0.18094,-0.078959,-0.002418,0.32912,-0.23197,-0.078959,-0.053513,0.15051,0.27796,0.07394,0.073989,0.30355,-0.027876,0.30373,-0.33391,-0.38498,-0.25753,0.17603,0.099479,-0.71663,-0.74211,-0.10447,0.53313,0.48211,0.55867,0.25257,-0.027962,-0.33404,-0.33407,-0.30856,-0.05347,0.074044,0.27815,0.60977,-0.027925,-0.078984,-0.10452,0.022986,0.17605,0.048506,-0.38503,-0.4871,-0.18101,0.15056,0.099552,0.38015,0.20159,0.27807,-0.18107,-0.38505,0.048536,-0.33391,-0.18097,0.099613,-0.002418,0.099559,0.2525,-0.079045,0.15051,0.5587,0.68621,-0.35956,-0.20653,-0.35958,-0.35953,-0.38504,-0.15545,-0.25751,-0.12998,0.43113,0.81373,0.58412,-0.053427,-0.28298,-0.12994,0.0485,0.15048,-0.33407,-0.053519,-0.51257,-0.232,-0.078935,0.17604,0.12505,0.32905,0.60974,0.048604,-0.69105,-0.33404,-0.13,0.48206,0.55861,0.048543,-0.43605,-0.46155,-0.18099,0.32912,-0.053458,0.22707,0.12499,0.45656,-0.20653,-0.25745,-0.12993,-0.25745,-0.12994,0.20159,-0.15555,0.20153,-0.18103,-0.25752,0.048585,0.53317,0.38016,-0.053519,-0.13002,-0.30856,-0.20648,-0.10454,-0.13001,-0.2575,-0.002454,0.20156,0.30356,0.38014,-0.078953,-0.33394,0.27805,0.074044,-0.23204,-0.10445,-0.07899,-0.25753,0.048518,0.22708,0.27815,-0.12988,0.023065,0.048438,-0.4872,-0.15553,0.25257,0.22706,0.048555,-0.30849,-0.10444,0.22711,0.023096,0.12502,0.12503,0.099521,-0.053488,-0.12997,0.099577,0.12507,-0.12996,0.17614,-0.15549,-0.079045,-0.41058,-0.33405,-0.078996,0.25255,0.43117,0.048585,0.38013,-0.053488,0.048592,-0.51259,0.22699,0.25255,-0.35957,-0.078966,-0.30843,0.25267,0.2271,-0.13003,-0.2065,-0.053537,-0.10456,-0.00243,0.048604,-0.053446,0.20155,0.20165,0.22713,0.12512,-0.20656,0.12496,-0.23211,-0.23205,-0.002516,0.023059,-0.027931,0.099626,-0.33402,0.099632,0.22711,0.40568,-0.25761,0.02298,0.3291,-0.23201,-0.30852,-0.38504,-0.15548,0.12504,0.32911,0.074038,0.17602,0.048592,0.30365,-0.078996,-0.002516,-0.33402,-0.002467,-0.027938,0.048506,-0.027974,-0.56359,-0.18103,-0.078966,0.45664,0.12508,-0.15543,0.2016,0.45666,0.38012,0.15047,-0.23208,-0.66559,-0.232,-0.35946,0.17616,0.32912,0.099546,-0.181,0.099521,0.073965,-0.02809,-0.10454,0.15055,0.074081,0.40568,0.20164,-0.15548,-0.25748,0.074026,-0.18101,-0.12999,-0.15546,-0.027956,0.074044,-0.027969,-0.02798,-0.053458,0.074033,-0.027956,0.099559,-0.13004,-0.079021,0.38013,0.12509,0.023065,-0.30852,-0.002461,-0.10444,-0.053458,-0.41052,-0.028018,0.073989,0.43112,-0.20652,-0.33398,-0.12998,0.099534,-0.28298,0.17607,0.45659,0.2015,-0.18098,-0.10447,-0.10444,0.023054,-0.15546,-0.05347,0.15064,0.3801,0.35458,-0.10458,-0.20656,-0.20652,-0.23199,-0.25746,-0.23193,0.099528,0.2271,0.55862,-0.10453,-0.5126,-0.07899,0.25257,0.45669,0.66075,0.048604,-0.53812,-0.58911,-0.56361,-0.25757,0.43112,0.12505,0.12508,0.27808,0.074081,0.12507,-0.13001,-0.10447,0.1251,0.4821,0.022986,-0.23201,-0.18101,-0.002497,-0.25748,0.048567,-0.18091,-0.10442,0.12509,0.1505,-0.053525,-0.002534,-0.23203,0.074038,0.023047,0.15059,0.048616,-0.078923,-0.18102,0.15052,-0.028042,0.38011,0.17607,-0.23205,0.023065,-0.41051,-0.33394,-0.10445,-0.053476,-0.15555,0.40555,0.40557,0.35456,0.25263,-0.28298,-0.35944,-0.053464,0.17609,-0.13002,0.17604,0.12507,0.20158,-0.38506,-0.33403,-0.18098,0.25259,-0.13002,-0.18098,-0.25753,0.02301,0.17603,0.27808,0.2526,0.1251,0.20163,0.099583,-0.078977,0.27804,-0.20644,0.20157,-0.002516,-0.23207,-0.13006,-0.33404,-0.3595,-0.20648,0.17608,0.074038,-0.027944,0.40558,0.45662,-0.1555,-0.078972,0.099613,0.27812,0.074106,-0.15548,-0.079002,-0.43609,-0.33415,-0.13002,0.15057,0.25253,0.17603,0.048573,-0.15546,-0.1299,-0.10443,-0.002436,0.25256,-0.23196,-0.07899,0.3035,0.023005,0.35456,0.32915,0.12511,-0.23189,-0.71662,-0.028023,-0.35962,-0.15553,0.09951,0.099534,-0.078959,0.048573,0.099595,0.074118,-0.027956,0.32905,0.43114,0.20157,0.45662,-0.028042,-0.46157,-0.51257,-0.18097,-0.38502,-0.20647,0.15049,0.27802,0.09957,-0.053427,-0.23196,-0.12998,-0.25748,0.40569,0.32917,-0.053525,0.15048,0.329,-0.053568,-0.33407,-0.23205,-0.15547,0.12508,0.22711,-0.56345,-0.027895,-0.053439,-0.13001,0.074026,0.15051,-0.053495,0.023065,0.15056,0.048585,0.099552,-0.10445,0.074002,0.2015,-0.053549,-0.23199,-0.20654,-0.078953,-0.078947,-0.15544,0.099564,0.17608,0.38005,0.17602,0.25262,0.12518,-0.23201,-0.25753,-0.3851,-0.33402,-0.078928,0.048549,0.38006,0.22706,-0.18103,0.12503,0.20155,0.12504,0.20157,0.074051,-0.33401,-0.28298,-0.283,-0.027956,-0.027944,0.15056,-0.053495,-0.23201,-0.33398,0.38009,-0.13,0.32915,0.35461,0.25255,0.43111,0.15042,0.073965,-0.25754,-0.38498,-0.20641,-0.4615,0.048629,-0.18106,-0.053439,-0.078984,-0.15551,0.073989,0.27808,-0.23197,0.17611,0.53318,0.68621,0.22701,-0.079081,-0.079063,-0.43604,-0.53806,-0.30845,-0.027931,0.20162,-0.23202,0.27811,0.45662,-0.23202,-0.33406,-0.35956,0.55867,0.35455,0.074057,-0.10448,-0.20647,-0.38502,-0.13004,0.099595,0.20153,0.20155,-0.027993,-0.02795,-0.078947,0.25268,-0.28293,-0.51257,-0.002497,0.27803,0.20151,0.022943,-0.38508,-0.33404,0.35459,0.04861,-0.23184,0.20166,0.15048,-0.07907,-0.18099,-0.028005,0.35453,-0.002472,-0.027974,-0.053427,-0.25744,-0.15537,0.2781,-0.028011,0.048482,-0.002521,-0.13003,-0.1045,-0.23197,-0.053415,0.45663,0.17603,0.20151,-0.05347,-0.25752,-0.33401,-0.13001,0.17609,0.22707,-0.053451,0.048549,0.50769,-0.18098,-0.43607,-0.6911,-0.181,0.048531,0.27805,0.30359,0.32905,0.22709,-0.28297,-0.23197,0.38013,0.074026,0.048476,-0.18101,-0.053476,-0.18097,-0.027907,-0.20643,-0.25748,-0.07907,0.22699,0.45654,0.35459,0.048573,-0.027987,-0.23199,-0.35948,0.12507,0.099637,-0.02792,-0.12995,0.048567,0.022956,0.17595,0.15051,0.22706,0.023103,-0.23193,-0.23196,-0.079002,-0.028042,0.15053,0.022992,0.22706,0.099534,-0.15546,-0.28295,-0.1554,-0.23193,0.15057,0.45658,-0.079021,0.023005,-0.02798,-0.078996,-0.13001,-0.1045,-0.027969,-0.079008,0.074069,0.023041,0.2526,-0.13,-0.33405,0.1505,-0.18093,0.20163,0.25265,-0.027938,-0.43609,-0.38514,-0.10452,-0.078972,0.099559,0.074051,0.023065,0.099546,0.50762,0.66067,0.35458,-0.53807,-0.46155,0.35463,-0.51252,-0.027931,-0.38506,0.099485,0.099564,0.099583,0.09957,-0.002521,0.022998,-0.25751,-0.10449,0.074057,0.17609,0.20158,-0.20653,-0.12993,-0.078959,-0.00251,0.45661,-0.30854,-0.46154,-0.002454,0.15057,0.32913,0.22705,-0.12998,-0.20653,-0.002479,0.073989,0.48211,-0.078984,-0.20651,-0.002363,-0.002381,-0.027895,0.099583,-0.23208,-0.61471,-0.43615,-0.053519,0.023023,0.048585,0.074038,0.25263,0.25265,0.40571,0.68622,0.15051,-0.41059,-0.53812,-0.18103,-0.027993,0.25259,0.45667,-0.4615,-0.41056,0.073946,-0.20655,0.048573,0.43118,-0.00243,-0.33399,-0.23202,0.15056,-0.078977,-0.00243,0.12506,0.30361,0.48209,-0.002516,-0.25759,-0.079033,0.074075,0.25256,-0.053446,-0.43602,-0.23201,-0.41053,-0.30851,0.58425,0.5076,0.25258,0.023035,-0.10452,-0.33406,-0.1555,0.12506,-0.079002,-0.12997,0.023023,0.074057,0.45659,0.023059,0.2781,-0.027889,-0.25746,-0.23201,-0.18105,-0.13003,0.22702,-0.10447,0.048555,0.17603,-0.12997,0.02309,-0.28298,0.17605,0.023041,-0.027931,0.17601,0.12505,0.25254,0.074062,-0.027913,-0.28303,-0.15551,-0.23205,-0.30853,0.023065,0.30366,0.17603,-0.1045,-0.15549,-0.002443,-0.078966,-0.2065,-0.002497,-0.33402,0.12507,0.38018,0.22708,0.38008,0.074026,0.37998,-0.15553,-0.43601,-0.436,-0.38503,0.02309,0.15062,0.048573,0.20153,-0.13003,-0.10453,-0.33401,-0.18098,0.22708,0.55859,0.55868,0.32905,-0.43604,-0.35957,-0.15546,-0.12998,-0.18094,0.099595,0.023029,-0.30858,-0.20652,0.3291,-0.10447,-0.027944,0.074038,0.048536,0.22708,0.58425,-0.18103,-0.3341,-0.35959,-0.23201,0.048567,0.45663,-0.10439,-0.2575,-0.25754,0.15051,0.15051,-0.28301,-0.2065,0.2526,0.58417,0.20158,-0.078984,-0.43601,-0.15548,-0.23199,0.227,0.22705,0.25262,0.099552,-0.078959,-0.56358,-0.23198,-0.002461,0.099595,0.3036,0.3036,0.20155,-0.18104,-0.18104,-0.00251,-0.078984,-0.2065,-0.15546,-0.20644,-0.002412,-0.027956,0.048512,0.15057,0.22704,0.68617,0.099546,-0.18098,-0.53806,-0.38503,0.048531,-0.002448,-0.028011,0.1251,-0.053525,-0.13004,-0.23202,0.20156,0.17604,-0.002485,-0.25749,-0.23194,-0.078923,-0.053415,-0.027993,0.27806,0.099528,0.023029,0.099534,0.22712,0.048616,-0.002479,-0.23209,-0.18107,-0.38502,-0.15548,0.12508,-0.027925,0.15052,0.15055,0.099521,0.048561,-0.41058,-0.002387,0.20162,0.25259,0.099534,-0.20649,0.20158,0.27816,-0.12999,-0.13006,-0.23213,-0.20655,-0.15553,-0.283,-0.053439,-0.027895,0.20161,0.27815,-0.078984,0.048531,0.35458,0.074051,0.099454,-0.20653,0.048543,0.27818,-0.18093,-0.61455,-0.30855,-0.079063,-0.0535,0.17606,0.074075,-0.18097,0.22707,0.023029,0.12505,-0.002448,-0.078977,0.20161,0.15052,0.40566,-0.30852,0.048585,-0.002472,-0.56356,-0.46162,-0.41052,-0.33403,0.35458,0.40557,0.22707,0.40559,0.048573,0.048549,0.30366,-0.053458,-0.027956,-0.28298,-0.12998,0.023023,-0.12999,0.048518,0.099503,0.074038,-0.23202,-0.10444,-0.078959,0.048536,0.45659,-0.28306,0.048543,-0.027938,0.12512,0.2526,-0.027944,0.023005,-0.43607,-0.56359,-0.10453,0.023017,0.55872,0.25262,0.023035,-0.20652,-0.48705,-0.10445,0.58413,-0.3085,0.12504,-0.028036,-0.002454,0.074051,0.2271,0.30358,-0.28298,0.048536,-0.027956,0.048536,-0.027969,-0.181,0.048543,-0.078972,-0.10447,-0.13002,0.17604,0.12503,0.099608,0.074081,-0.38502,-0.20653,-0.10449,0.58417,0.074013,-0.028018,-0.53805,-0.15546,-0.18099,-0.12996,0.22704,0.43112,0.25256,-0.078977,-0.30852,-0.3595,0.074038,0.048561,0.27814,0.20162,-0.027974,0.38002,-0.15551,-0.38508,-0.28306,-0.23203,-0.05347,0.023041,-0.12993,-0.07891,0.27815,-0.002454,0.30358,0.22707,0.074013,-0.46154,-0.15552,0.4821,0.12508,0.12512,-0.10449,-0.48711,-0.15549,-0.1045,0.074062,-0.12998,-0.20652,0.12504,0.43113,-0.078923,-0.002467,0.25257,-0.002485,0.27809,0.15062,-0.18098,0.074057,-0.18101,-0.25749,-0.38505,-0.38508,-0.18105,0.22704,0.22711,0.1251,-0.002436,0.12506,-0.33401,0.1506,-0.002461,-0.002454,0.22704,-0.15553,-0.079033,-0.078984,-0.10449,0.25259,-0.283,0.12514,0.12514,-0.232,-0.35958,-0.25757,-0.18106,-0.027993,0.20158,0.32909,0.38017,0.04858,-0.43601,-0.027969,-0.002521,0.02301,0.25251,0.048561,0.2271,-0.25751,-0.002472,-0.23198,-0.078892,0.15059,-0.51262,-0.30853,0.17603,0.32907,0.02301,0.074087,0.074051,0.15062,0.32917,-0.0535,-0.15561,-0.10455,0.023005,-0.23198,0.048634,-0.027871,-0.07891,0.12512,-0.25753,-0.33406,-0.07907,0.022961,0.48206,0.20155,0.45662,-0.15546,-0.28297,0.074087,-0.053433,0.048512,-0.30853,-0.15545,0.12507,0.17607,-0.181,0.074013,-0.13004,-0.002485,0.023035,0.09954,-0.053415,-0.30849,-0.053427,-0.002479,-0.028018,0.048518,0.048506,-0.12993,-0.053427,0.30361,0.074013,-0.10452,-0.079033,-0.15546,0.074038,-0.15551,0.55861,0.15059,0.38016,0.074044,-0.5126,-0.33404,-0.30849,-0.20654,0.1251,-0.027925,-0.23201,0.048585,-0.078977,0.63509,0.048531,0.32903,0.45654,0.048592,-0.23199,-0.25746,-0.10445,-0.28298,0.1251,-0.33401,-0.28304,0.12499,0.023005,0.15054,0.45667,0.35464,0.12509,-0.20652,-0.28305,-0.41057,-0.027998,0.048531,0.048585,0.048567,-0.078972,0.43116,-0.15549,-0.002448,-0.10448,0.12505,-0.053568,-0.002479,-0.027956,-0.002423,0.15053,-0.28302,-0.18098,0.12511,0.15056,0.15054,-0.181,-0.25753,-0.078984,0.048573,0.2526,0.2271,-0.18105,-0.1555,-0.33401,-0.078996,0.048549,0.27806,-0.053476,-0.027969,0.048561,0.25262,0.023041,-0.18098,-0.30852,-0.28303,0.074002,0.35454,-0.002436,0.27812,-0.027969,-0.053451,-0.078959,-0.33401,-0.13001,0.023023,0.12502,0.2781,0.20152,0.20155,-0.027931,-0.48699,-0.5125,-0.12998,0.099564,-0.12998,0.17599,0.43105,0.32905,0.20156,-0.20647,-0.33397,-0.027901,-0.38497,-0.25748,0.073989,0.12496,0.09951,0.25262,0.15058,0.30363,-0.20651,-0.13,-0.2065,-0.23201,0.17608,0.27808,-0.002491,-0.13005,0.099559,0.22715,-0.25746,-0.46151,-0.58906,-0.027938,0.17604,0.12504,0.048512,0.38006,0.25264,0.12507,-0.002412,-0.51255,-0.027974,0.022986,-0.028005,-0.053549,0.048585,0.17611,0.17611,0.023059,-0.002454,-0.35956,-0.25751,-0.10449,0.2271,0.35462,0.50768,0.023035,-0.18107,-0.35961,-0.20658,-0.1555,-0.12991,0.43122,0.04858,0.43106,-0.23208,-0.35957,-0.053402,0.074051,0.2526,-0.23199,-0.30853,-0.05347,0.023035,0.38008,0.32907,-0.23202,-0.38505,-0.053506,0.12509,-0.232,0.048585,0.27817,0.3546
-0.15551,0.099552,-0.002472,0.22707,-0.10447,0.22709,-0.10447,0.20158,-0.18098,-0.12999,-0.61457,0.074051,0.07402,0.38007,0.023029,0.099552,0.09957,-0.10447,-0.25748,-0.3085,-0.25752,-0.18095,0.048518,0.32906,0.32905,0.22707,-0.18097,0.023054,-0.02795,-0.28303,-0.28303,-0.15549,0.17603,0.30358,0.15054,0.35461,-0.12997,-0.12996,-0.30847,-0.181,-0.46154,-0.10449,0.15054,0.099534,0.048536,0.15054,0.32908,0.17606,0.17607,-0.33401,-0.46157,-0.23199,-0.1045,0.15057,-0.002472,0.22709,0.099552,0.12507,-0.12999,-0.23202,-0.30849,-0.07899,0.27807,0.17606,0.023041,0.074062,0.074062,0.074069,-0.12998,-0.027969,-0.48707,-0.078972,-0.12999,0.12504,0.17608,0.27808,0.3036,0.09954,0.15057,-0.20651,-0.078972,-0.48701,-0.15546,-0.10449,0.25257,0.048531,0.20157,-0.12999,-0.002467,-0.1555,-0.10452,-0.10449,-0.15556,-0.002472,0.12505,-0.18098,0.6097,-0.12997,-0.30852,0.099564,-0.46156,0.30365,-0.053513,0.12502,0.60963,-0.078977,-0.33399,0.17607,-0.46155,-0.05347,-0.15551,0.35464,0.073995,0.12502,0.27809,-0.15546,-0.23198,0.27814,-0.35952,-0.23199,0.074002,-0.38505,0.68615,-0.15555,0.04858,0.22707,-0.30851,0.32917,-0.28302,-0.20652,0.27805,-0.35957,0.53317,-0.13004,-0.078959,0.32909,-0.15548,0.43119,-0.15549,-0.33404,0.15054,-0.053506,-0.12998,0.25256,-0.027962,0.27809,0.048536,0.17608,-0.25751,-0.10448,-0.56358,-0.027969,0.048536,0.25256,0.023041,0.12509,-0.12996,-0.002461,-0.18098,-0.13,-0.0535,-0.002467,0.20155,0.35457,0.22707,-0.10447,-0.10444,-0.487,-0.12996,-0.2065,-0.079014,0.02301,0.38007,0.023023,0.17607,-0.10447,0.15057,-0.10447,-0.02795,-0.33404,-0.053495,-0.232,0.15055,0.07402,0.09957,-0.12998,0.20158,0.023041,0.074062,-0.25751,-0.15553,-0.23201,0.12505,-0.07899,0.15057,0.048536,0.074069,-0.053458,-0.002454,-0.0535,-0.15551,-0.053476,0.15057,0.15055,0.17607,-0.002454,-0.12998,0.099552,-0.078966,-0.23201,-0.43608,-0.027969,-0.15549,0.074038,0.048555,0.27809,0.15057,0.023047,0.023054,-0.33404,0.048512,0.17601,-0.02795,0.048543,-0.002454,-0.002423,-0.12999,0.074093,-0.10446,-0.30853,-0.18098,-0.1045,-0.33404,-0.002497,0.12503,0.30361,0.58416,0.3291,-0.078953,-0.33404,-0.66562,-0.48703,-0.232,0.50762,0.048518,0.074013,0.78825,0.048567,0.30365,0.074075,-0.10449,-1.2777,-0.41061,0.073989,0.35456,-0.053451,0.15059,-0.002423,-0.64006,0.15055,-0.027913,-0.12999,0.099528,0.20154,0.7116,0.66073,0.15065,-0.25748,-0.41054,-0.51262,-0.18109,-0.43609,-0.23198,0.3546,-0.002418,0.38016,-0.28305,-0.079021,-0.23193,0.3546,0.3036,0.023072,-0.13001,0.25251,-0.58905,-0.48708,0.17606,0.35458,-0.078977,0.58427,-0.28298,-0.35954,-0.053549,-0.053544,0.40553,0.30368,-0.46144,0.35466,-0.18093,-0.23207,-0.41055,-0.053482,-0.46159,0.2015,0.073995,0.27805,0.15053,0.17607,-0.15545,-0.283,-0.66551,-0.35951,0.91569,0.30361,0.5332,0.20158,-0.51262,-0.35956,-0.20652,0.5332,0.17617,0.50761,-0.15553,-0.79315,-0.61466,0.099442,-0.002461,-0.1045,0.22709,-0.027938,-0.078966,-0.20647,0.25258,0.023047,0.43115,0.25259,0.40561,-0.15543,0.074118,-0.028023,-0.97163,-0.41055,0.12497,0.6861,-0.25756,-0.079002,0.023059,0.50768,1.324,0.91573,-0.64017,-1.6347,-0.4361,0.048396,0.45647,-0.38511,-0.48694,0.20172,0.30374,-0.48697,0.38011,0.45656,-0.33416,0.17602,0.074033,0.12502,0.20162,0.38006,-0.25745,-0.05339,-0.002423,0.023084,-0.028018,0.17595,-0.48711,-0.7676,0.048463,0.66074,0.55871,-0.15551,-0.18096,-0.078892,-0.35953,-0.20655,-0.43611,-0.053513,0.30363,0.22711,0.50771,0.074069,-0.25762,-0.078984,-0.46156,0.073971,-0.30852,0.48211,-0.053409,-0.078959,-0.027998,-0.35932,0.43115,0.074033,0.023054,0.60965,-0.41063,-0.15551,-0.79319,0.15046,1.2216,-0.18095,0.02309,0.023127,-0.84405,-0.33396,0.30363,0.40559,-0.2575,-0.283,0.35459,-0.053482,-0.30847,-0.053421,-0.25756,-0.20651,0.30347,0.86466,0.45674,0.40565,-0.30858,-0.89514,-1.3288,-0.58915,-0.30852,0.27809,1.0179,0.35465,0.12505,0.22703,0.2526,-0.86953,-0.30858,-0.07907,0.099515,0.22705,-0.053402,-0.078959,0.25261,0.43112,0.89027,0.0741,-0.66565,-1.5838,-0.58915,-0.0535,0.17606,0.5077,0.55864,0.35459,-0.053506,-0.1045,-0.436,-0.02798,-0.15551,-0.028005,-0.053446,0.71177,1.2728,0.58414,-0.053476,-1.4052,-0.53814,-0.74211,0.27805,0.35462,0.27807,0.048536,-0.20652,-0.41054,0.023065,-0.43609,-0.51262,-0.69108,1.5279,1.3494,-0.20646,0.023059,-0.71663,0.099485,0.074026,-0.35954,-0.5381,-0.38504,-0.078996,0.074044,-0.002443,0.45667,0.048531,-0.13181,0.046696,0.22521,0.023047,-0.181,0.32912,1.0432,0.55866,0.3036,-0.61456,-0.35949,-0.56348,-0.64012,-0.71666,-0.41056,0.15052,0.32906,0.83919,0.40557,-0.4871,-0.30843,0.04861,-0.28294,0.074038,0.25258,0.3036,0.27808,-0.079039,0.022968,-0.18098,-0.742,0.48216,0.76273,-0.56358,-0.079021,-0.56361,-0.053555,0.45663,-0.028011,-0.30854,-0.23201,0.099626,0.023078,0.20157,-0.35959,0.20156,-0.18108,0.48206,-0.078977,0.099595,0.20165,0.20163,0.048604,-0.078935,-0.28301,-0.079051,-0.10448,0.55868,-0.38516,-0.64012,0.17611,0.55869,0.66067,-0.53809,-0.56362,-0.18112,0.22699,-0.61452,-0.12992,0.38015,0.3546,0.1506,0.25264,0.023139,0.30358,-0.46152,-0.3341,0.099491,0.12498,-0.079014,0.6352,0.53322,-0.23199,-0.41057,-0.48706,-0.25757,0.35455,-0.30856,-0.002485,0.25268,-0.12999,0.43125,-0.30854,-0.25751,-0.079008,0.17602,0.073965,-0.078977,-0.078966,0.15059,0.58422,0.099559,-0.2065,-0.41056,-0.002467,-0.51259,-0.64011,0.40563,0.45664,1.1199,1.0943,-0.30861,-0.69125,-1.0227,-0.79312,-0.46159,-0.56363,0.074057,0.94123,0.40571,-0.027895,0.099546,-0.13001,-0.18095,0.17604,0.38009,0.27803,0.25255,0.048536,-0.41052,-0.35948,-0.33401,-0.33399,0.27808,-0.35955,-0.2575,-0.25753,0.074062,0.55863,0.074057,0.099601,0.20156,0.50768,-0.1555,-0.79314,-0.10451,-0.15556,-0.43608,-0.41052,-0.053446,0.55862,-0.002436,-0.18098,0.20163,0.53318,0.32918,-0.18102,0.048543,-0.1555,0.45657,0.20152,0.048531,-0.58906,-0.33398,-0.079021,-0.12999,-0.56358,0.25254,0.32911,0.17604,0.12506,-0.58907,0.15057,0.58417,-0.053378,0.20158,0.20161,-0.002448,-0.23205,-0.71668,-0.3341,0.074069,0.30363,0.023054,-0.053525,-0.28305,0.30358,0.12508,0.099619,0.68621,0.15052,-0.028005,-0.56355,-0.18098,-0.30856,-0.18101,-0.10451,0.35456,-0.002443,-0.15546,0.35465,0.023114,-0.20647,-0.38506,0.17605,0.40558,0.76272,0.45666,-0.66562,-0.61472,-0.71671,-0.97167,-0.35951,0.25263,0.32923,1.3494,0.66061,-0.053476,-0.79314,-0.66562,-0.69117,-0.33402,-0.053476,0.48223,0.32918,0.45661,0.5076,-0.00257,0.022992,-0.028018,-0.28299,-0.30843,0.20163,0.22713,0.22708,0.22711,-0.1556,-0.20658,-0.46159,-0.25746,-0.23196,-0.35948,0.15053,0.30358,0.30368,0.09954,0.25245,-0.69116,-0.15542,0.35463,1.1709,0.25264,-0.53809,-0.74217,-0.74214,-0.079155,0.27803,0.94134,-0.10445,-0.053488,-0.30857,0.12507,0.32915,-0.28296,0.12504,-0.002461,-0.12994,-0.10449,-0.4617,-0.18108,0.45656,0.074136,0.81391,-0.1044,0.09957,-0.56364,-0.53817,-0.053568,-0.079057,-0.15542,0.4057,0.43113,0.27807,-0.15554,-0.18103,-0.053519,-0.41053,0.3291,0.074044,-0.002418,-0.1044,-0.053409,0.4566,-0.25748,-0.25746,0.15054,0.25256,-0.4616,-0.4106,-0.1555,0.12504,0.58418,0.27812,0.02309,0.50768,0.022919,-0.35962,-0.41058,-0.81876,-0.46153,0.48224,0.4823,0.63534,-0.053482,-0.15553,-0.48718,-0.33422,-0.43605,-0.23194,0.15066,0.66064,1.3493,0.25262,-1.1502,-0.18103,-0.053537,0.074051,0.25263,-0.23208,-0.079033,-0.48702,0.074155,0.55867,0.5842,-0.027987,-0.10458,-0.61468,-0.53814,-0.15554,0.30349,-0.43596,0.38025,0.91583,0.66075,0.17608,0.22707,-0.92074,-0.94623,-0.64016,0.023084,0.38011,0.45659,0.2526,-0.538,-0.23199,0.40552,0.048494,0.048592,0.12508,0.63524,0.22716,-0.23194,-0.18101,-0.28313,-0.18108,-0.1045,-0.027944,-0.41056,0.15056,-0.10447,-0.02792,0.1251,-0.10444,0.5587,-0.053495,-0.18103,-0.053568,0.278,0.09954,0.20164,0.023065,-0.64013,-0.18104,-0.23198,0.32908,-0.33402,-0.33394,0.32914,0.71171,-0.05347,-0.181,-0.07907,0.45659,-0.078923,-0.35951,-0.13003,-0.079008,-0.283,-0.15552,0.02301,0.2781,0.1506,0.35463,0.07416,-0.079026,-0.48711,0.22705,0.30356,0.50771,0.099497,0.023084,-0.2575,-0.41055,-0.6656,-0.33404,-0.15552,-0.002503,0.38013,0.3291,0.3546,0.27811,1.0943,-0.07891,-1.0482,-0.53809,-0.35961,-0.23203,0.023059,0.4822,0.074111,0.023029,0.40556,0.38006,0.45664,-0.38502,-0.25748,-0.48703,0.32909,0.17601,-0.15556,-0.51257,-0.76761,-0.35951,0.71171,0.53321,0.20163,-0.13004,-0.48711,0.176,0.048482,0.38013,0.32926,0.099608,-0.28304,-0.18106,-0.46155,-0.43611,0.023035,0.176,0.17607,-0.23195,0.12508,0.17609,0.12513,0.20161,-0.18105,-0.15554,-0.23199,0.074038,0.022956,-0.23198,-0.53805,-0.28302,0.17613,0.2782,0.73726,0.099454,-0.35969,-0.18111,0.58419,0.76282,-0.25747,-0.8442,-0.56362,-0.23202,0.12504,-0.027969,0.20159,0.2016,0.074033,-0.18096,-0.30847,0.15059,0.78822,0.9923,0.15049,-0.28309,-0.89517,-0.41057,0.12508,0.074051,-0.51257,-0.33402,-0.33399,-0.027931,0.22705,0.12498,0.58416,0.48213,-0.10446,-0.10449,-0.20652,-0.20647,0.074081,0.40571,0.27811,-0.027993,-0.20648,-0.25761,-0.51262,-0.46164,-0.51259,-0.30856,-0.10449,-0.053378,1.1709,1.0434,0.22702,-0.28309,-0.38508,-0.43609,0.25252,-0.078972,-0.02792,-0.00243,-0.28298,-0.079021,0.12514,0.20164,-0.35957,-0.15553,-0.028054,-0.18109,0.099588,0.30368,0.53325,-0.027944,-0.51258,-0.56364,-0.30866,0.20147,0.17614,0.48223,0.25267,0.25262,-0.43599,-0.43613,-0.33408,-0.3596,0.2525,0.15059,0.86489,0.38019,-0.25748,-0.028018,-0.48714,-0.71664,-0.13002,0.43113,0.38008,-0.027938,0.09957,-0.28298,0.099608,0.023054,-0.053519,-0.20649,-0.38508,-0.23203,-0.027969,0.53309,0.099595,-0.15548,0.40557,-0.078972,0.38023,0.45664,0.073989,-0.61467,-0.33409,-0.35961,0.27819,0.099595,0.20169,0.27817,-0.35962,-0.74221,-0.28314,-0.13002,0.20169,0.63526,0.43117,0.17607,-0.58906,-0.028011,-0.053549,0.022992,0.023047,-0.12994,0.099479,0.099515,-0.1809,0.78834,0.45666,-0.3086,-0.48711,-0.97169,-0.053586,0.15047,0.099546,-0.20644,-0.18086,0.73729,0.58423,-0.25753,-0.51267,-0.15559,-0.10452,0.048531,0.35461,0.20152,0.58424,-0.15537,-0.23201,-0.7166,-0.58914,-0.30858,0.86478,0.50759,-0.002546,-0.23199,-0.35944,0.074093,-0.027987,-0.002467,-0.25754,0.15051,0.12501,0.17604,0.40565,0.40561,0.1251,-0.35942,-0.76755,-0.33402,-0.18102,-0.35958,0.073977,0.35458,0.86472,0.023059,0.048634,-0.23203,-0.33401,-0.027969,-0.28305,0.43105,0.45656,0.099588,0.048543,-0.18099,-0.23198,-0.436,-0.002387,0.048585,0.40562,0.125,0.17603,0.38006,-0.15554,-0.20647,-0.56354,-0.35952,0.12509,0.71173,0.60963,-0.25758,-0.23195,-0.13001,-0.30852,0.09951,-0.027987,-0.12998,-0.20656,-0.079057,0.35466,0.17612,-0.002405,0.3291,-0.23199,-0.3085,-0.30848,0.023035,0.12506,-0.053476,0.07402,0.099497,0.074002,0.15055,0.07402,0.32913,0.3292,-0.15549,-0.56355,-0.53805,0.12502,0.15046,-0.64006,-0.078984,0.60968,1.1963,0.48211,-0.86964,-1.3286,-0.56357,0.022961,0.048543,0.50771,0.66064,0.074038,0.099601,0.074062,-0.35953,0.023035,-0.23203,-0.079045,-0.13007,0.12497,0.30359,0.15061,0.17612,0.86491,-0.10451,-0.53809,-0.64011,-0.28306,0.20155,-0.002467,-0.079026,-0.053451,0.20158,-0.10444,-0.002436,-0.002418,0.35456,-0.079045,-0.15553,0.30366,0.38008,-0.20653,-0.18101,-0.2575,-0.18097,-0.002467,0.023041,0.30354,0.099608,-0.18098,-0.053488,-0.15557,-0.25751,0.17609,0.048604,0.15061,-0.25744,0.099595,0.099491,0.12493,0.099515,-0.028018,-0.30854,-0.18092,0.55867,0.58417,-0.3085,-0.35958,-0.10453,-0.20655,-0.027889,0.074069,0.22705,0.023072,-0.10449,0.17609,-0.002479,-0.25754,-0.12998,0.50769,0.7372,0.22706,-0.56367,-0.4871,-0.79311,-0.33396,-0.283,0.45654,0.30364,0.35468,0.25258,0.099466,-0.15548,0.32915,-0.10446,-0.20647,-0.25754,0.15061,-0.15553,0.30356,0.074038,-0.15555,-0.15552,-0.053482,0.099608,-0.002436,0.53324,-0.20651,-0.30864,-0.28308,-0.078953,0.71176,0.50759,-0.20647,-0.33404,-0.28302,-0.38503,-0.12996,0.25258,0.38012,0.27806,-0.028018,-0.33401,-0.13002,0.15054,-0.41047,0.73738,0.53318,-0.028042,-0.1301,-0.079021,-0.28306,-0.20659,0.20158,0.074057,0.12515,0.30372,-0.28301,-0.74217,-0.15554,0.02295,0.20159,-0.002405,0.40563,-0.15553,0.12505,0.53312,0.15052,0.43113,-0.027969,0.38019,0.048543,-0.5636,-0.97167,-0.46153,-0.66557,0.023139,0.35457,0.91568,0.25251,-0.079033,-0.13004,-0.18097,-0.181,0.17608,0.15062,0.38015,0.43108,-0.1045,-0.15546,-0.33403,-0.13001,-0.20645,0.20159,0.27806,-0.4871,-0.23201,0.176,0.48216,-0.002423,-0.25748,-0.0535,0.17607,-0.38502,-0.10449,0.27809,0.2781,0.20155,0.048573,0.022998,0.43112,0.17608,-0.35953,-0.28305,-0.4105,-0.15549,-0.33404,0.099559,0.58418,0.17604,0.099559,-0.43606,-0.35957,0.15055,0.40573,0.1506,0.35463,-0.18103,-0.53813,-0.30855,0.073989,0.35453,0.30357,-0.02792,0.04858,-0.002423,-0.81851,-0.35948,0.3035,0.12499,0.15045,0.38008,-0.002374,-0.33388,0.30363,-0.20651,0.022986,-0.25755,0.94124,0.32904,-0.43608,-0.56357,-0.46157,-0.12994,-0.053415,0.58422,-0.002472,-0.079057,-0.053549,0.023054,0.22706,0.20158,0.25262,-0.41053,-0.18103,-0.18094,0.40563,0.17607,-0.28307,-0.30856,0.17599,0.4311,0.048525,0.48219,-0.38499,-0.35936,-0.23193,-0.13,0.25249,0.43108,-0.002565,-0.35962,-0.30856,-0.38503,0.099626,-0.078935,0.20164,0.45664,0.53318,0.27804,-0.10452,-0.20657,0.12502,-0.078977,-0.30851,-0.43598,-0.23201,0.25263,0.43112,0.023065,-0.13004,-0.41058,0.35456,0.66067,-0.181,-0.30851,0.17609,0.023054,-0.078996,0.048494,-0.35956,-0.30855,-0.28298,0.023114,0.4057,0.40569,-0.15548,0.022986,0.048458,0.12497,0.15052,0.099528,0.099588,-0.12998,-0.002381,0.27815,0.30361,-0.46161,-0.69111,-0.079039,0.25257,0.074013,-0.74207,-0.23194,0.27815,0.53318,0.25256,-0.053495,-0.079051,0.17606,-0.12996,-0.053495,-0.027962,-0.38508,-0.46151,-0.078941,0.048604,0.25256,0.099515,0.25252,0.32917,0.4822,-0.079033,-0.35959,-0.13005,0.048531,-0.002394,-0.20651,-0.41048,-0.53807,0.15061,-0.15554,-0.15551,0.45656,-0.027938,0.32914,0.43113,0.048512,0.099552,-0.053544,-0.58905,-0.1555,-0.002418,-0.15546,0.2526,0.048531,0.20163,0.12505,0.32905,-0.15555,-0.61455,-0.15559,-0.027993,-0.46157,0.68625,0.81374,0.86482,-0.4361,-0.53809,-0.33407,-0.61462,-0.25757,0.58414,0.73725,0.15059,-0.33396,-0.46152,-0.25753,-0.15556,0.022992,0.38008,0.38013,0.40561,0.12509,-0.43602,-0.053446,-0.10445,-0.1045,-0.078959,0.27805,0.099521,-0.028072,0.048531,0.048592,0.12513,-0.053464,-0.078984,-0.30858,-0.23205,-0.20652,-0.02792,0.60976,0.27811,-0.25754,0.048555,-0.053409,-0.181,-0.28305,-0.3086,-0.028018,0.27802,0.53312,0.20155,-0.053433,0.2016,-0.02792,-0.18093,0.63507,-0.053476,-0.25753,0.074075,0.20161,-0.12998,-0.41055,-0.33408,-0.48705,-0.002412,0.30364,0.099515,-0.079002,-0.053525,0.12503,0.12507,0.12508,0.27817,0.2271,-0.43603,-0.35956,0.27806,0.20159,0.27803,-0.028005,-0.38505,-0.053427,0.43118,0.099588,-0.41055,-0.25756,-0.23206,0.32911,-0.10449,0.40566,-0.13002,-0.15552,0.023035,-0.002472,0.048543,0.023005,-0.25745,-0.1554,0.15054,0.40553,0.43106,0.17611,0.20161,-0.64003,-0.12995,0.048622,-0.2831,0.12492,-0.33411,-0.30856,0.38012,0.5332,0.60976,0.048585,-0.002448,-0.56359,-0.71663,-0.13005,0.27805,0.099613,0.099608,0.099552,-0.053495,0.30351,0.15057,0.09951,-0.027998,-0.15543,0.07413,0.4312,-0.20654,-0.30854,-0.43609,0.023054,0.023072,-0.10445,-0.13002,-0.20652,0.22702,0.20155,0.50767,0.22715,-0.078959,-0.20648,-0.10448,-0.079008,-0.028011,0.50762,0.048482,-0.23193,0.89029,0.35464,-0.71666,-0.86969,-0.46162,0.023059,0.53315,-0.20654,-0.28303,-0.38502,-0.027931,0.48222,0.76273,0.63526,0.12508,-0.1811,-0.33412,0.099497,0.38001,-0.20649,-0.58905,-0.30854,-0.20649,-0.027944,0.12512,0.074118,0.17604,0.17607,0.15056,0.27801,-0.33399,-0.078977,0.099521,0.53313,-0.078947,-0.48703,-0.33404,-0.30855,0.074062,0.43118,0.89027,-0.18098,-0.86966,-0.58912,-0.48708,0.02301,0.53307,0.27805,0.68618,0.53311,-0.053409,-0.43597,0.22713,-0.078959,-0.51254,-0.6146,-0.28308,-0.079008,0.30353,0.83917,0.35462,-0.15543,-0.41049,-0.30847,-0.027925,-0.078984,-0.00251,-0.027969,0.43108,0.27805,0.20154,0.32905,-0.25752,0.17612,-0.5125,-0.53801,-0.35956,-0.15553,0.4056,0.25259,0.27812,-0.15543,-0.00254,0.15052,-0.33398,-0.10443,0.15053,0.17605,0.048512,0.25256,0.4821,-0.35952,-0.2065,0.099632,-0.2065,-0.12999,-0.13001,-0.15547,-0.283,-0.053476,0.48211,0.12502,-0.20646,0.27812,0.048604,0.17606,-0.078984,-0.41058,0.35455,0.278,-0.283,-0.23196,0.12511,0.35464,-0.25746,0.15054,-0.079008,0.22707,-0.028005,-0.25752,-0.10449,-0.30852,-0.053439,0.40567,0.25262,-0.00251,-0.079075,-0.027998,0.074062,-0.5636,-0.61458,0.43119,1.3494,0.6607,-0.56362,-0.76767,-0.74217,-0.35956,0.02301,0.22707,0.2016,0.30365,0.43115,0.27815,-0.027956,-0.053513,0.22702,-0.23204,-0.28303,-0.15549,-0.053488,-0.053446,0.074062,-0.10445,0.22706,0.15058,0.074069,-0.23205,-0.10455,-0.18102,0.5332,0.32911,0.074008,-0.18103,-0.51248,-0.283,0.40559,-0.33408,0.023054,-0.18101,0.73724,0.40563,0.15065,-0.43606,-0.61465,-0.10453,0.40564,0.81375,-0.28304,-0.4872,-0.13012,-0.436,0.48225,0.30371,-0.69105,-0.69115,0.12507,0.50755,0.53314,-0.12997,0.40561,-0.1045,-0.20646,-0.10449,0.1506,0.125,0.17604,-0.25753,0.048518,-0.15551,-0.027987,-0.35944,-0.1554,0.35459,-0.181,-0.10454,0.09954,0.3291,0.43115,0.12502,-0.33405,-0.18096,0.09957,-0.1045,-0.13001,0.17607,-0.33407,-0.23201,-0.028011,0.25263,0.30362,0.20163,0.32912,-0.053464,-0.41049,-0.38506,0.20153,-0.28308,-0.002503,0.48211,0.35479,0.17618,-0.15554,0.022968,-0.43613,-0.25754,-0.33411,0.099613,0.15056,0.25257,0.48216,-0.002467,-0.23203,0.099503,-0.38499,-0.33399,0.1251,-0.13001,-0.002454,0.048604,0.43117,0.38013,0.35457,-0.0535,-0.28309,-0.28303,-0.181,0.2271,0.02301,-0.027956,0.023047,0.40564,0.048555,-0.46156,-0.23198,-0.20652,0.12502,0.022986,-0.002461,0.023065,0.25267,0.27812,-0.053458,0.074038,0.12504,-0.28302,-0.079045,-0.053506,-0.28306,0.04858,0.25268,0.099608,-0.30851,0.022986,-0.41049,-0.0535,0.32905,0.25253,0.60966,-0.078953,0.17607,-0.48703,-0.20649,-0.48702,-0.35953,0.023023,-0.13002,0.38009,0.45659,0.55859,0.20159,0.38011,-0.00243,-0.48699,-0.35948,-0.43607,0.099503,-0.053495,-0.027987,0.27812,0.22711,-0.027969,0.048525,0.17605,-0.10446,0.22712,-0.35959,-0.35956,0.07402,0.27806,0.17604,-0.002436,0.15059,0.17611,-0.078886,-0.41052,-0.053482,-0.23201,-0.13,0.30355,0.25254,0.20159,-0.15543,0.15057,0.074051,-0.053513,-0.0535,-0.35951,-0.002454,0.15057,-0.18103,-0.027962,-0.15548,-0.002423,0.30365,0.074075,-0.00254,-0.35954,0.074062,0.22709,0.30354,0.15056,-0.15549,-0.30849,-0.12998,-0.283,0.27805,-0.027987,-0.078984,0.023005,0.20153,0.20158,0.023059,-0.12988,-0.25744,-0.10443,-0.053513,0.12507,0.45663,-0.053537,-0.30854,-0.41056,-0.10449,0.048525,0.22707,-0.002405,-0.002528,0.099521,0.099546,0.45662,-0.078941,0.43118,-0.30856,-0.41047,-0.35949,-0.2575,0.40553,0.27809,-0.10449,0.09954,0.43112,-0.38508,-0.6146,-0.25751,0.20164,0.25263,-0.027993,-0.13002,0.12502,0.43108,0.71164,0.43112,-0.43602,-0.20645,-0.23198,-0.25745,-0.18101,0.048549,0.1505,-0.20649,-0.20651,0.099521,0.12502,0.22708,0.048561,0.35461,0.022986,-0.18097,0.048622,-0.027931,0.20158,-0.18103,-0.30855,-0.23202,-0.053488,-0.002472,0.66065,0.63515,-0.002503,-0.078959,0.099588,-0.53806,-0.38503,-0.12998,0.27821,-0.002467,0.22704,0.45662,-0.053531,-0.25756,-0.46156,-0.23201,-0.18103,0.048555,-0.027944,0.60968,0.8902,-0.02795,-0.35954,-0.61455,-0.35952,-0.20645,-0.20645,0.40565,0.32908,0.5076,0.099466,0.022986,0.09951,-0.002558,-0.15548,-0.23202,-0.15546,-0.10447,-0.35947,-0.20647,0.89029,0.35466,-0.20645,-0.10449,-0.4361,-0.053525,-0.028042,0.12502,0.023059,0.27814,-0.002485,-0.002485,0.2781,0.48211,0.099583,-0.23197,-0.30851,-0.97165,-0.81856,0.30356,0.86469,0.38022,-0.30858,-0.028066,-0.1046,0.40563,0.55869,0.02309,-0.12993,-0.25753,-0.46156,-0.15551,-0.10449,-0.053488,-0.078966,0.3801,0.48216,0.30369,0.27819,-0.38503,0.17597,0.048463,-0.028096,-0.2066,-0.56359,-0.35951,-0.43601,0.023108,0.32917,0.43123,0.81375,0.15056,-0.25754,-0.15556,-0.10452,-0.23203,-0.181,-0.002491,0.04858,0.022974,0.68618,0.074044,0.15058,-0.33407,-0.53809,-0.28297,-0.3595,-0.078947,0.71171,0.099662,0.50764,-0.079039,-0.18111,-0.33408,-0.10453,-0.23198,0.048531,0.2526,0.15059,0.074124,0.09957,-0.15547,0.022992,0.15055,0.048512,0.15059,-0.027993,-0.53803,-0.18097,0.43119,0.38013,-0.181,-0.15556,-0.23202,0.0485,-0.23202,-0.41058,-0.20649,-0.078923,0.8648,0.45659,0.073965,-0.20655,-0.25754,-0.38506,-0.23198,0.22718,0.53321,0.1761,-0.35948,0.073995,0.074002,0.048438,-0.58908,-0.15553,-0.002497,-0.18092,0.12512,-0.078879,0.4821,0.43108,-0.027969,-0.10452,-0.15553,-0.23197,0.074051,-0.12994,0.12504,-0.20646,-0.33401,0.32907,-0.028018,-0.1045,-0.078996,0.17614,0.099559,0.6607,0.22708,0.40564,-0.41061,-0.079057,-0.07907,-0.33406,-0.41047,0.20161,0.30358,0.023127,-0.12998,-0.078959,-0.10453,0.35461,0.35462,-0.18097,-0.28305,-0.5126,0.12501,0.074033,0.27811,-0.12991,0.20163,0.3801,-0.30856,-0.079057,0.38001,0.048561,0.074142,-0.33396,-0.33398,-0.41048,-0.13001,-0.20653,-0.028018,0.30356,0.17602,0.20157,0.22708,0.099619,0.25257,-0.05347,-0.027998,0.12505,0.2526,-0.053458,-0.30852,-0.30849,-0.15546,-0.30852,-0.38502,-0.2575,0.30361,0.25249,-0.078984,0.53314,0.3036,0.074013,-0.027987,-0.10444,-0.027944,-0.02792,-0.027956,0.3546,-0.10452,0.17604,0.25251,-0.00251,-0.053464,0.099601,-0.63996,-0.38494,-0.15549,-0.20657,0.073984,0.27805,0.22705,0.30358,-0.053482,0.20162,0.30366,0.38016,-0.079021,-0.13005,-0.48707,-0.13,-0.10445,-0.078977,0.074069,-0.027969,0.20157,-0.23198,0.099546,0.227,0.60962,0.53315,0.09957,-0.18098,-0.48703,-0.38502,-0.283,-0.58902,-0.15551,0.55862,-0.053525,-0.027993,0.048543,0.17607,0.15063,0.38006,0.22707,0.22706,-0.283,-0.079014,-0.20646,-0.12998,-0.053458,-0.10452,0.12506,-0.28299,-0.15542,0.17611,-0.15549,0.22696,0.12502,0.30356,0.25258,0.43111,-0.12985,-0.5381,-0.46155,-0.25753,-0.28303,0.38003,0.15054,1.1709,0.50769,-0.18105,-0.5126,-0.64011,-0.53804,-0.002461,0.15053,0.1761,0.22704,0.40559,0.30355,-0.002436,-0.23195,-0.027944,-0.00243,0.048549,0.22708,0.048506,-0.30854,-0.027998,0.15049,-0.13,0.023054,-0.15546,-0.12993,-0.28295,-0.20657,0.71164,-0.002521,0.048549,-0.20653,-0.38502,-0.33394,0.17609,0.71171,0.32916,-0.053451,0.07394,0.099466,-0.002503,-0.028005,-0.20651,-0.2065,-0.078923,-0.23198,0.023096,-0.002467,0.5331,0.048512,0.048525,-0.20653,-0.487,-0.25749,0.023023,-0.053476,-0.002436,0.68615,0.15058,-0.027907,0.32918,-0.33403,-0.66568,-0.1556,0.048525,0.6863,0.43123,-0.13003,0.04842,-0.46166,-0.56361,-0.23201,0.32913,0.25267,0.12512,0.17615,0.09957,-0.027993,0.048518,-0.078972,-0.079033,-0.13003,-0.053506,0.20163,0.099577,0.0741,-0.027987,-0.053488,-0.079014,-0.71662,-0.00243,0.32908,0.15052,-0.053446,0.099595,0.023103,-0.002534,0.3291,-0.028029,0.099528,-0.23202,-0.46154,-0.20647,-0.002418,-0.10446,0.15056,-0.23202,-0.027974,0.96676,1.2218,0.22705,-0.58914,0.48221,-0.48708,-0.69116,-0.84417,-0.4871,-0.002521,0.099497,-0.053421,0.27811,0.43112,0.40566,0.58416,0.17614,0.023072,-0.58906,-0.46156,0.53307,0.66067,-0.002301,-0.002497,-0.25755,-0.51262,-0.30858,0.023005,-0.20652,-0.20653,-0.1556,0.43115,0.22715,0.22711,0.63524,0.25261,-0.25755,-0.028018,-0.25746,-0.25748,-0.13002,-0.43609,1.1198,0.38013,0.09954,-0.48707,-0.4616,-0.25756,-0.30852,-0.46153,-0.002497,0.71164,1.0943,0.68622,0.023084,-0.33406,-0.028005,-0.002521,-0.25746,-0.43605,-0.002467,-0.25753,0.022998,0.22706,0.074075,0.48218,0.96678,-0.35949,-0.46157,-0.30849,-0.25761,-0.25762,-0.4871,-0.23201,-0.027956,0.04861,0.78824,0.38012,-0.23201,0.12507,0.22704,-0.027987,-0.13002,-0.027969,-0.027944,-0.078947,-0.078947,0.22708,0.30358,-0.33401,-0.18101,0.073977,-0.38511,0.12504,-0.28298,0.83937,0.50765,-0.23207,0.099546,0.048506,0.099552,-1.0482,-0.51265,-0.61457,0.55876,0.27815,-0.053439,-0.18101,-0.25749,0.022998,0.43104,0.94113,0.5076,0.20158,-0.28297,-0.12992,-0.33398,-0.053446,-0.28301,-0.35956,0.048476,-0.41064,0.4566,0.43117,0.63532,-0.23193,-0.30854,-0.38508,-0.3851,0.12498,0.30346,-0.027987,0.27807,0.25266,-0.15543,-0.027938,-0.46149,-0.20647,-0.13,-0.35951,0.48216,0.48216,0.32904,-0.002546,-0.053531,-0.15551,-0.078972,0.3036,0.38016,-0.07899,-0.43608,-0.28303,-0.027895,0.074038,0.023017,0.07402,0.35462,0.38013,-0.35949,-0.76757,-0.053495,0.27803,0.048506,0.32913,0.15055,0.22713,0.048634,0.20165,-0.13001,-0.23207,-0.48713,-0.23207,0.35454,0.27805,0.048585,-0.002412,0.22714,0.074044,-0.53803,-0.25751,0.78816,0.17604,0.15054,0.15049,0.22711,-0.3595,-0.43603,-0.436,0.12505,-0.027974,-0.35953,-0.028005,0.22704,0.63514,0.76272,-0.25754,-0.35949,-0.35946,0.15063,-0.38505,-0.10459,-0.2321,-0.13002,0.07402,0.25258,0.25264,0.20164,-0.027907,-0.20647,-0.027944,-0.053525,-0.18105,0.17604,-0.053495,0.20162,0.023035,-0.33396,0.22712,-0.18101,0.074038,0.12498,-0.053488,-0.027993,0.048561,0.20159,-0.20649,-0.12993,-0.02795,-0.15546,0.22706,0.27803,0.35455,-0.053482,-0.20652,-0.002436,0.074093,-0.053433,-0.38499,-0.43603,0.25256,0.45657,0.17601,-0.10453,-0.18099,0.023078,0.099564,0.22712,-0.2575,-0.15548,0.048536,-0.053506,-0.002534,0.22701,0.22708,0.17611,0.048585,-0.12999,-0.25748,-0.46154,-0.43607,0.60963,0.12507,0.1506,-0.027974,-0.15552,0.38013,0.6352,-0.20653,-0.4871,-0.64008,-0.20653,-0.13002,0.48219,0.5076,0.50762,-0.20649,-0.538,-0.33398,-0.07899,0.12504,0.17604,-0.027987,0.22705,-0.027998,0.22705,-0.053427,0.32918,-0.053402,-0.002436,-0.053544,-0.41063,-0.07899,-0.10451,-0.028011,0.25256,0.1761,-0.053458,-0.35948,-0.053421,-0.078928,0.3036,0.53307,0.2271,0.15051,-0.15548,-0.13002,-0.23201,-0.053495,0.15056,-0.35953,-0.053506,0.1761,0.20159,0.48215,0.023041,-0.20647,-0.51255,-0.002472,-0.0535,-0.10448,-0.12999,-0.38504,0.40559,0.3036,0.30354,0.07402,0.099521,-0.078959,-0.12993,0.15059,0.35459,0.048555,-0.35953,-0.48711,-0.10453,-0.12999,-0.18097,0.32915,0.32915,0.35465,0.17605,-0.28311,-0.30861,-0.20655,0.15057,0.17614,0.68626,-0.002423,-0.23202,-0.30855,-0.23207,-0.2066,-0.15553,-0.20647,0.12509,0.76273,0.71171,0.17607,-0.38505,-0.38503,-0.23205,-0.43606,-0.18101,0.27809,0.27806,0.023078,0.023023,0.35465,-0.181,-0.25751,-0.10452,-0.053506,-0.15549,0.15057,0.048585,0.50768,0.25257,0.15052,-0.48712,-0.20653,0.099546,-0.002412,0.20162,-0.10444,-0.07899,-0.053488,-0.23203,-0.33401,-0.23198,0.35459,0.20158,0.17605,0.20156,-0.00254,-0.15548,-0.25744,0.22713,0.45662,-0.18099,-0.28302,-0.079008,0.074013,0.30353,0.15048,-0.23201,0.17617,0.25267,-0.33398,-0.43604,-0.23203,-0.028023,0.022986,0.074038,-0.027969,0.09954,0.20158,0.17606,0.43118,0.09954,-0.23201,-0.1045,-0.12996,0.53323,-0.002491,-0.3341,-0.51262,-0.20654
-0.2065,-0.027993,0.023029,-0.002461,0.023017,0.074051,0.15056,-0.002454,-0.02795,-0.20648,0.023059,-0.079002,0.074026,0.02301,0.12505,-0.027969,-0.027944,-0.15548,-0.10444,-0.05347,-0.053451,0.15052,-0.027969,0.048531,0.099552,0.09954,-0.00243,0.023041,0.12507,-0.078953,-0.2065,0.278,0.25252,-0.002461,-0.1045,-0.027956,0.12508,-0.20648,-0.15545,-0.15545,-0.18096,-0.027993,0.048525,0.17604,0.20155,0.27808,0.074038,0.048561,0.048561,-0.15546,-0.10447,-0.15552,0.023041,0.074013,0.048531,0.048536,0.048549,0.048561,-0.078977,-0.053451,-0.05347,0.02301,-0.23198,-0.05347,0.023029,0.09957,0.074062,0.048549,0.048561,-0.053482,-0.15547,-0.002503,0.22703,0.22705,0.048518,-0.078953,-0.053464,-0.078935,-0.12996,-0.027969,0.12505,0.048512,-0.15551,-0.053446,-0.078996,0.023041,0.12508,0.048531,-0.12996,0.048555,-0.10449,0.15052,0.02301,0.023041,-0.027974,-0.10447,0.023047,0.023029,0.074069,0.048555,-0.078972,0.074026,-0.23201,-0.18098,-0.078966,-0.20649,0.15058,0.17604,-0.002448,0.22706,0.02301,0.15052,-0.15552,-0.15548,-0.053464,-0.10447,0.048555,-0.027944,0.12509,0.048536,0.12505,0.099521,-0.15549,-0.02798,-0.15549,0.048561,-0.053446,0.023041,-0.002454,-0.002448,0.074038,0.022998,0.048531,0.074044,-0.027969,-0.05347,-0.078959,-0.002467,-0.027944,0.12507,-0.053464,0.022998,-0.027962,-0.053488,-0.027944,0.023035,0.15058,0.074038,-0.12995,-0.18097,-0.181,0.12501,-0.053482,0.15055,-0.078972,0.048525,0.12506,0.20158,-0.10446,-0.12998,-0.10447,0.12503,-0.027993,-0.05347,0.048536,-0.002461,-0.053446,0.048561,-0.078972,0.074075,-0.1045,0.17603,0.099515,0.25257,0.023023,0.023047,-0.15548,-0.25746,-0.053451,-0.15546,0.023035,-0.028005,0.17604,-0.028005,-0.027956,-0.12998,0.17609,-0.10448,0.074081,0.074038,0.15055,-0.053519,0.17604,0.048525,0.023054,-0.181,-0.078935,-0.10448,0.048573,0.048549,-0.15548,0.099521,-0.18099,0.074033,0.12504,0.12504,-0.027944,0.023054,-0.027944,0.048567,-0.12999,-0.00251,0.20153,0.20155,0.048543,-0.10447,-0.12997,-0.25746,-0.20647,0.17611,-0.10449,0.12501,0.099521,0.15052,-0.15546,0.023029,0.12506,0.048585,0.074075,-0.10444,-0.23203,-0.30853,0.099528,0.32907,0.12499,-0.12999,-0.02798,0.074081,-0.002399,-0.078917,-0.027962,-0.0535,0.17603,-0.027998,0.17607,0.12504,-0.28302,-0.23194,-0.30849,-0.18095,0.17612,0.3546,-0.10455,0.25257,-0.20654,-0.12999,-0.027987,0.15058,0.38018,0.32917,-0.18105,-0.079057,-0.46157,-0.20655,0.15057,-0.20653,0.099619,-0.027969,-0.027901,0.1506,0.15059,0.27805,0.20155,0.45659,0.074033,0.048531,-0.46156,-0.56356,-0.002443,-0.23193,0.023096,0.22707,0.15054,-0.35956,-0.028114,-0.20655,-0.53803,0.35459,0.22713,0.50774,0.45668,0.50758,0.22709,-0.15551,-0.053519,-0.079093,-0.69107,-0.002516,-0.027962,0.023103,0.27804,0.023035,-0.027895,-0.1044,-0.35952,-0.15548,0.12504,-0.28299,-0.38505,0.50761,0.30358,0.2271,0.176,-0.027998,-0.43613,-0.25755,0.15059,0.68608,-0.20644,-1.2775,-0.53795,0.43112,0.17594,0.17601,0.25251,0.50765,0.63526,0.4313,-0.30854,-0.64018,-0.35964,0.09951,0.12501,-0.35946,-0.20645,-0.027925,0.25254,0.15057,0.023059,-0.51249,-0.079039,0.12499,0.15057,-0.25751,0.27811,0.30365,0.22717,0.30363,0.45659,-0.07907,0.048525,0.30353,-0.028114,-0.66566,-1.2011,0.12509,0.30363,0.099637,0.40571,0.58413,-0.23205,-0.20655,-0.53813,0.12501,-0.18091,0.48222,0.73722,-0.10447,-0.46157,-0.15555,-0.20649,-0.15551,0.50761,0.58407,-0.30852,0.048585,-0.69099,-0.15551,0.50763,0.35465,0.099479,-0.1301,-0.58915,-0.027993,0.2526,-0.12989,-0.33397,0.15064,0.45668,-0.002448,0.023041,0.023017,-0.20651,0.27808,0.48211,0.58404,-0.20656,-0.51253,-0.53804,0.35461,0.3291,-0.41058,-0.61461,-0.81865,-0.00251,0.15056,0.45671,0.48233,0.60976,0.58419,0.2016,-0.20656,-0.18108,0.022931,0.048409,-0.15553,-0.28306,0.023065,-0.28294,-0.12983,0.20169,0.15057,-0.64022,0.58412,-0.10447,0.048536,-0.12999,-0.23203,0.09954,0.22705,0.074038,-0.079002,0.17602,-0.30846,0.099577,0.22708,0.27813,-0.027962,-0.027998,-0.18094,0.048696,0.02295,0.9412,0.2015,-0.58913,-0.76766,-0.38504,0.32915,-0.10448,-0.23205,-0.23204,-0.25753,-0.15553,0.048561,1.0176,0.78822,0.074302,0.55885,0.099608,-0.46159,-0.79324,-0.25766,-0.64023,-0.13004,-0.35952,0.7628,0.53318,-0.12999,0.66064,0.38013,-0.30855,-0.84414,-0.33401,-0.33403,-0.027858,-0.027987,0.17607,0.048536,0.09954,0.43104,0.5586,-0.053519,-0.41057,-0.13003,-0.002448,0.023103,-0.12987,0.58417,0.45669,0.048622,-0.33407,-0.1301,-0.538,-0.51267,-0.53817,-0.053513,0.32913,0.38013,0.023029,-0.027864,-0.20642,0.17607,0.074062,-0.15557,-0.2576,0.20149,0.53318,0.15064,-0.002479,0.12507,-0.10451,0.048525,-1.0736,-0.10444,-0.38499,0.35468,0.63527,0.35467,0.22702,0.37994,-0.35968,0.278,0.30365,-0.002485,-0.48702,-0.053439,0.023023,-0.99713,-0.89512,-0.41049,0.58423,0.53307,0.55865,0.43118,-0.053549,0.048561,0.15056,0.27812,0.15062,-0.56354,-0.43606,-0.02806,-0.5637,-0.10456,0.25262,1.0944,0.30371,-0.15553,-0.38508,-0.64004,-0.58905,0.35445,-0.28308,0.2781,-0.15546,0.45662,0.45667,0.17609,-0.46152,-0.46151,-0.30852,0.4311,0.17609,-0.30853,0.17604,0.40553,-0.76761,-0.20653,0.43114,0.43117,-0.15549,-0.15556,-0.20652,0.099595,-0.1045,0.048567,-0.23198,0.45667,0.40567,-0.181,-0.58914,0.32902,-0.30851,-0.002516,-0.10452,-0.53806,0.20162,0.86478,0.12513,0.023029,-0.053476,-0.4616,-0.23205,-0.078966,0.45663,1.2473,0.27811,-0.079008,-1.0227,-0.84413,-0.25746,0.25257,-0.002491,0.22697,-0.2065,-0.25754,0.99237,0.89025,0.17609,-0.35957,-0.46163,-0.41059,-0.053409,-0.027925,-0.283,-0.33396,0.099503,0.15056,-0.079008,0.17604,-0.33407,0.48212,0.25263,0.40565,0.25259,0.099564,-0.538,-0.53806,0.023059,-0.1045,-0.43612,0.15045,-0.10449,-0.35955,0.27812,0.66064,-0.15551,-0.5635,0.12511,0.76278,0.43117,0.60962,-0.41063,-0.20656,-0.58913,-0.28306,0.099583,0.12513,0.048598,0.12512,-0.18093,-0.002528,0.15052,-0.4871,0.3035,0.86467,0.17603,-0.61455,-0.487,-0.002399,-0.12988,0.15055,0.30346,0.278,-0.33405,-0.20645,0.35461,0.50765,0.12517,0.20155,0.125,-0.027944,0.32915,-0.18101,-0.35954,-0.69119,-0.38511,-0.41058,-0.05347,0.55873,0.71175,0.17603,-0.15554,-0.51255,0.25254,0.17606,-0.33396,-0.05336,0.35467,1.1199,-0.35959,-0.25766,-0.38518,-0.61466,-0.28308,0.27803,0.20164,0.25271,0.32918,0.50765,-0.58903,-0.13001,-0.13001,0.074013,0.55865,-0.20656,0.048561,0.15059,-0.23196,0.32907,-0.38511,-0.20661,-0.078966,0.20166,0.074069,0.38016,0.4056,0.38011,-0.41057,-0.33401,0.048598,0.074013,-0.58915,-0.028018,-0.12999,0.40568,1.0689,0.048512,-0.30854,-0.283,0.099564,0.43099,-0.078977,-0.46154,-0.18097,0.023029,0.60967,-0.56345,-0.69103,0.3801,0.099485,0.048476,0.22696,-0.10456,0.074081,-0.38506,-0.12991,0.35468,0.58422,0.2016,-0.28297,-0.69106,0.15048,0.074002,-0.078966,0.55859,0.15047,-0.20653,-0.10452,0.25268,-0.002374,0.48217,-0.20652,-0.43615,-0.48708,0.074087,0.22705,0.15067,0.1506,0.022943,-0.38514,-0.53811,-0.181,-0.3085,0.32905,0.22708,0.66078,1.0944,-0.002479,-0.33403,-0.43612,-0.46169,0.022974,0.66074,0.32921,0.20159,-0.66564,-0.74214,-0.2066,-0.20654,-0.64004,-0.15554,0.96674,0.73721,0.12512,0.22713,-0.20651,0.83931,-0.38513,-0.00251,-0.58912,0.22713,0.099595,-0.25747,-0.46167,-0.15567,-0.30856,0.53326,0.43127,-0.002418,0.3291,0.27799,-0.028066,-0.46149,-0.58904,-0.30851,0.22708,0.50765,0.099564,-0.053488,-0.10446,0.25257,0.30352,-0.15547,0.023054,-0.13004,0.55868,0.35467,0.20176,-0.61465,-0.46161,-0.35964,0.53318,0.50769,-0.1556,0.048506,0.17608,0.023047,-0.41054,-0.53806,-0.15546,0.45657,0.27813,-0.28294,-0.28297,0.35459,0.20153,0.48209,0.074002,-0.30846,-0.12999,0.048536,0.43113,0.12505,-0.43605,-0.28305,0.27811,-0.28305,-0.20646,-0.027956,0.176,0.27803,-0.079021,0.32918,-0.56355,-0.30851,-0.028018,-0.15549,0.15065,0.15057,0.12505,-0.053513,0.60969,-0.053446,-0.25751,0.074026,-0.027993,0.40566,-0.28299,0.074051,-0.23201,-0.028036,-0.35961,0.27809,-0.48699,0.32918,0.099564,0.30363,0.048555,-0.1045,0.227,0.20152,0.30355,0.023005,0.17607,-0.25747,-0.66556,-0.66555,-0.46156,0.023059,0.20159,0.60967,0.20164,0.55869,0.58414,0.048512,-0.15557,-0.25768,-0.61462,-0.66556,0.43121,0.15068,0.20154,-0.35953,-0.23203,-0.028023,-0.13004,-0.002516,-0.23201,0.099588,0.1506,0.76272,0.73717,0.3801,0.4311,-0.25747,-0.99718,-1.0737,-0.33404,-0.30846,0.3291,0.27812,-0.028018,0.023084,-0.13007,-0.07907,0.17599,0.023041,-0.12995,0.17617,0.023096,0.50762,-0.20655,-0.35951,0.30363,0.15057,0.3546,0.32905,-0.56355,-0.35948,-0.56359,-0.3851,0.12502,0.38017,0.96666,0.32908,-0.71663,-1.0992,-0.69108,0.71173,0.9668,0.27803,0.71165,-0.13007,-0.53814,-0.48707,-0.71659,0.38017,0.55879,0.22713,0.12507,-0.30857,-0.48713,-0.053519,0.3036,0.63521,0.66058,-0.43599,-0.43602,-0.58901,-0.48703,0.27802,0.45654,0.023017,-0.25747,0.60962,0.40566,0.099637,0.074075,-0.13001,-0.53812,-0.51267,-0.61466,-0.41055,-0.38507,0.53321,0.32924,0.40574,0.50762,0.86481,0.63521,-0.10459,-0.99729,-0.97174,-0.61463,-0.13002,-0.28305,0.27813,0.25265,0.023084,0.35458,0.38006,-0.25754,-0.33392,0.40561,0.73721,0.40566,-0.078917,-0.38504,-0.58911,-0.05347,0.09943,-0.38507,-0.30853,0.12501,0.32907,-0.053482,-0.20645,-0.15543,0.58413,0.76277,-0.58902,-0.25756,0.38011,0.73722,0.53317,-0.13004,-0.58918,-1.1758,-0.66565,-0.81864,0.83926,-0.078935,0.27808,0.48211,0.53315,0.83932,-0.4105,-0.74209,-0.053427,0.40563,0.125,0.3545,-0.35952,-0.61454,0.074038,0.22705,-0.18097,0.20153,0.3291,-0.10444,-0.18105,-0.71663,-0.00251,0.89019,0.4312,0.3292,-0.079026,0.20158,-0.61458,-0.61465,-0.38508,0.023047,0.2526,0.55868,0.38022,-0.23204,-0.46159,-0.4871,-0.181,-0.027993,0.40563,0.91567,0.074087,0.15064,0.3036,-0.23206,-0.283,0.048585,-0.18101,-0.46157,-0.38507,-0.28306,0.27802,0.023047,-0.053427,0.81365,0.63514,-0.3595,-0.35944,-0.15545,-0.23198,-0.25755,0.25256,0.074033,0.68617,0.17607,0.074038,-0.33404,-0.25752,-0.74215,-0.64016,-0.43612,0.78825,1.2984,-0.20655,0.023023,-0.25754,0.25262,-0.027931,-0.1045,0.099479,-0.25757,-0.56353,-0.10446,0.35464,0.32913,0.35465,0.15057,-0.43599,-0.41056,-0.25757,-0.15552,0.43108,0.32907,0.048518,0.022992,0.32915,-0.20649,-0.58904,-0.13001,-0.18103,-0.33409,0.35465,0.7372,0.94133,-0.30856,-0.46156,-0.66564,-0.232,-0.25754,-0.20654,0.45662,0.2526,0.17606,-0.23201,0.15057,0.48218,0.15064,-0.12993,0.023023,0.048487,-0.13005,-0.28307,-0.30854,-0.46157,-0.002436,0.22712,-0.002418,0.32917,-0.181,0.07394,0.50749,0.048525,-0.28298,-0.10443,-0.18097,-0.20645,0.20164,0.35463,0.25261,-0.15555,-0.66562,-0.4106,-0.053513,-0.028005,-0.053488,0.40565,0.76267,0.60973,0.074093,-0.64012,-0.4361,-0.46159,-0.28302,0.023035,0.22713,0.71175,-0.053525,-0.002479,-0.41056,0.15051,-0.13001,-0.35951,0.074044,0.15052,-0.13002,-0.078966,0.32915,0.074087,-0.30851,-0.002491,0.60973,-0.18099,0.43102,-0.43607,-0.23199,-0.28297,-0.33402,-0.4105,0.12503,-0.10455,0.17595,0.073965,0.40557,0.15064,0.30369,-0.25739,-0.18097,-0.232,-0.027962,0.099491,0.20152,0.12501,0.074038,-0.33398,0.30359,-0.002448,-0.15548,-0.20652,0.12506,0.55865,-0.053427,-0.1045,-0.64017,-0.1045,-0.027969,0.099564,-0.028011,-0.027993,0.30364,0.53321,0.58421,-0.25751,-0.18107,-0.41057,-0.20649,-0.25743,0.048494,-0.23194,0.17609,0.43108,0.12502,0.63504,0.15053,0.35458,-0.053446,-0.61451,-0.81851,-0.2065,-0.23196,0.38011,0.30356,0.048518,0.25254,-0.079002,0.12507,-0.15549,-0.46151,-0.30853,0.20159,0.20156,0.20153,0.63518,-0.10455,-0.33401,-0.002423,-0.078996,-0.002485,-0.15546,-0.33399,-0.30849,-0.079008,0.25253,-0.027993,0.43112,0.55868,-0.12996,-0.28298,-0.20647,-0.41055,0.02295,0.227,0.048536,0.099595,-0.48704,0.43111,0.38008,-0.053409,-0.33396,-0.41054,-0.48717,0.0485,-0.002485,0.15059,0.3036,-0.053451,-0.10449,0.30363,0.38019,0.20158,0.27807,-0.41067,-0.15552,-0.35956,-0.10445,-0.15539,-0.20652,0.20152,0.048531,0.32907,0.048555,0.048585,0.099595,-0.20647,-0.53803,-0.30854,0.15052,0.32908,-0.053439,-0.078917,-0.079008,0.22708,-0.23205,0.176,0.048531,0.22704,0.048598,0.25257,-0.12997,-0.20642,-0.15552,-0.00251,0.023023,-0.30854,-0.053495,0.27812,0.2271,0.3036,0.12507,-0.35951,0.04858,-0.181,-0.181,-0.43607,-0.35954,-0.053451,0.25256,0.099521,-0.053439,0.63521,0.68612,0.12499,-0.15555,-0.41057,-0.18103,-0.38503,-0.00243,0.22714,-0.10443,-0.436,0.048518,0.12501,0.09957,0.048573,0.25257,-0.053482,-0.053495,0.27808,0.25258,-0.18103,0.099521,-0.23205,-0.002436,-0.30852,-0.15545,-0.078923,-0.002454,0.074087,0.15051,0.27806,0.048531,-0.18098,-0.078984,0.099534,0.32908,-0.002472,0.048585,-0.23199,0.023084,-0.33404,-0.30853,0.25255,0.15055,-0.23203,-0.078996,0.3036,0.32912,-0.18098,0.02309,0.38011,-0.25757,-0.002516,-0.43602,-0.10441,0.4821,0.22702,-0.53806,-0.28305,-0.20651,0.43118,-0.053476,-0.30852,-0.1555,-0.028011,0.15057,0.71165,0.53314,-0.078966,-0.53804,-0.28298,0.25253,-0.002516,0.074118,-0.66561,-0.15553,0.12505,-0.002472,0.71168,-0.23196,0.15056,-0.25753,-0.053495,0.66065,-0.38499,-0.1045,0.074051,-0.12998,0.78825,-0.76767,-0.38508,0.073965,0.58417,0.94128,-0.86964,-0.53806,-0.38506,-0.15547,0.66072,0.6607,0.3546,-0.00254,-0.61465,0.12507,-0.35956,-0.30852,-0.23197,-0.12997,0.89023,-0.053397,-0.181,-0.10449,-0.00251,0.78819,-0.078996,-0.0535,0.35463,-0.46154,0.53317,-0.33405,-0.0535,0.073935,-0.30855,0.60976,0.023145,-0.43596,0.099521,-0.25756,-0.053488,0.22707,0.30366,-0.002503,-0.002485,0.099534,-0.002472,0.15049,-0.10453,-0.30852,-0.33402,-0.002412,-0.15546,0.099552,0.15056,0.38018,-0.10449,0.048506,0.20154,-0.15554,-0.10447,-0.15545,-0.027925,0.25254,-0.38501,-0.38504,0.12505,0.38009,0.38006,0.7372,-0.25748,-0.41047,-0.51254,-0.51259,-0.05358,0.15055,0.40555,0.30362,-0.002418,0.074111,0.25262,-0.23198,-0.181,-0.18105,-0.23203,0.15058,-0.053525,-0.079051,-0.15552,-0.027969,0.099546,-0.027895,-0.25744,0.023041,0.12504,0.2016,0.22708,0.074033,0.12499,-0.15549,-0.28299,-0.10448,-0.18103,0.099613,0.12501,0.023017,-0.15551,-0.28297,0.023005,0.30358,0.048525,-0.35948,0.023065,-0.18095,0.17607,0.43113,-0.028036,0.074038,-0.283,0.09957,0.1251,-0.053513,-0.20652,-0.20654,-0.053531,0.074013,0.15051,0.22706,-0.23196,0.023108,0.20161,-0.053378,-0.15545,-0.25755,0.25254,-0.15549,0.099528,0.074038,-0.027962,0.12507,0.20162,0.17607,-0.10454,-0.30855,-0.38511,-0.23208,-0.078972,0.048549,0.91583,0.22717,-0.25746,-0.23202,-0.35956,-0.25759,-0.079002,-0.10448,0.4821,-0.181,0.2271,0.40556,0.20158,0.074051,0.023096,-0.23198,-0.66555,0.023005,0.17607,0.22707,0.22707,-0.079014,-0.25758,-0.48701,0.074057,-0.053482,0.32912,0.35462,0.074038,-0.13005,0.15055,-0.002485,0.1506,-0.027969,0.074093,-0.078947,-0.283,-0.25751,0.12502,-0.078996,0.17604,0.12507,-0.12996,0.3802,0.38013,-0.053458,-0.38508,-0.028066,0.25252,0.30353,0.30363,-0.53794,-0.71652,-0.18096,-0.028005,0.12501,-0.002558,-0.053506,-0.002467,0.15057,0.023041,-0.10443,-0.053409,0.50765,0.53315,-0.48705,-0.30855,-0.079021,-0.1045,0.048525,0.20156,0.048573,-0.38499,0.02309,-0.33403,0.22705,-0.079051,0.45659,0.22708,-0.33405,-0.56358,-0.51256,-0.25751,0.15064,0.71176,0.30358,-0.20656,-0.053549,-0.15551,0.25256,0.30363,0.20163,-0.053427,-0.053427,-0.20652,-0.15552,-0.3596,-0.18109,-0.33408,-0.33404,0.048598,0.25267,0.45659,0.048482,-0.002418,0.20162,-0.28303,-0.002485,0.22707,0.20151,0.3036,-0.35953,-0.51255,-0.41054,-0.15553,0.53315,0.94126,0.22712,-0.28303,-0.51259,-0.56361,-0.35959,-0.15549,0.099559,0.50767,0.30363,0.048549,0.12503,0.099521,0.27811,0.074111,-0.078972,-0.41054,-0.18103,-0.053433,-0.002461,-0.053488,-0.18103,-0.027974,0.40555,0.25259,-0.20653,-0.027938,0.43117,0.023108,0.074075,0.17605,-0.25759,-0.28306,-0.13002,-0.15551,-0.23193,-0.027931,0.48216,0.048512,-0.078984,0.073989,0.074069,0.20151,0.1251,-0.053506,0.099564,-0.07891,0.048592,-0.25748,-0.30854,-0.10455,-0.027998,-0.2065,0.048536,0.55866,0.30357,0.20159,-0.4105,-0.23198,-0.23204,-0.0791,0.12503,-0.10449,0.15057,0.048629,-0.002436,0.30358,0.023029,-0.4615,-0.002405,0.176,-0.028005,0.023023,-0.20648,0.074069,0.15057,-0.15551,0.048536,0.35465,0.43109,0.32904,0.15051,-0.28302,-0.2065,0.048567,-0.23201,-0.078959,-0.20647,-0.30851,-0.23195,0.35468,0.94124,-0.028042,-0.002528,-0.33409,-0.13009,-0.46154,-0.23196,0.023127,0.25263,0.023035,0.43113,0.074033,0.048536,-0.1555,-0.334,0.30353,0.099534,0.22711,0.25262,-0.30851,-0.28305,0.022937,0.074038,-0.28297,-0.12993,-0.002436,-0.51249,-0.33399,-0.079002,0.27808,0.48211,0.17597,0.38006,0.15051,-0.20647,-0.38497,-0.053397,-0.10449,0.023029,0.50765,0.40562,0.048518,-0.41058,-0.51258,-0.20648,-0.053464,0.2526,0.22712,0.20156,0.073995,-0.028018,-0.33404,-0.10447,0.12512,0.12512,0.074062,-0.078959,-0.18101,0.17606,0.227,0.17603,-0.12999,-0.30854,-0.3085,0.048536,-0.002374,0.20166,0.074069,-0.25754,-0.15557,0.35456,0.50755,-0.053482,-0.35949,-0.25745,-0.43601,-0.15543,0.27809,0.3291,0.43105,0.25252,0.20153,-0.48713,-0.25753,-0.38497,-0.20646,0.09965,0.32911,-0.1045,-0.002503,-0.15553,-0.10453,0.023017,0.17608,0.40565,0.45664,-0.15541,-0.23197,-0.079008,-0.23206,-0.18105,0.023035,0.048525,0.25262,-0.027962,0.22708,-0.232,0.2016,-0.078984,-0.58906,-0.23203,-0.002503,-0.15548,0.074075,0.099588,0.43115,0.53314,-0.05347,0.09954,0.073984,-0.28309,-0.46159,-0.12997,0.1761,0.45671,0.2781,-0.23201,-0.15553,-0.12998,-0.23204,-0.25753,-0.18103,-0.12997,0.12512,1.2474,0.43107,-0.12999,-0.28303,-0.078996,-0.41066,-0.15553,-0.15558,-0.30851,0.40566,0.25265,0.38015,-0.15545,-0.10448,-0.48708,-0.053544,-0.002491,-0.18099,0.2526,0.30361,-0.20645,-0.027956,-0.078953,0.048549,0.35457,0.073977,-0.027974,-0.078996,-0.078923,0.22715,0.09957,0.048506,0.022986,0.099521,-0.5126,-0.28304,-0.12998,-0.002472,0.25265,-0.12998,-0.35948,0.2526,0.38013,0.27814,-0.10453,-0.38516,-0.38509,0.32912,0.32913,-0.18097,-0.079014,-0.12996,-0.15548,0.074087,0.2271,0.22703,-0.002521,-0.18103,-0.15548,-0.15551,-0.053451,-0.18096,-0.30847,0.35467,0.12499,0.099466,0.176,0.15057,-0.078928,-0.35954,-0.25753,0.35462,0.023047,0.099613,-0.18101,-0.33409,-0.20652,0.45664,0.55862,-0.002454,-0.232,0.09957,-0.18096,-0.436,0.022992,0.6096,0.27806,-0.078941,-0.56356,-0.15554,0.048525,0.023072,0.023035,-0.027938,-0.28304,-0.053488,0.22704,0.20156,0.6352,0.20158,-0.35951,-0.30851,-0.15548,-0.078923,-0.28301,-0.23203,-0.027969,0.022986,0.22704,0.17606,0.17612,0.27811,0.12504,-0.41058,-0.0535,-0.18108,0.15057,0.58423,-0.15551,0.1506,-0.002423,-0.56353,-0.5381,-0.33404,0.17601,0.27803,0.22707,0.09957,0.20159,-0.078928,-0.18097,-0.23198,0.22714,0.074062,0.30358,-0.13008,0.35453,0.17609,-0.05347,-0.18097,-0.23199,-0.41052,0.27805,0.09957,-0.71658,-0.28306,-0.027962,0.048604,0.38012,0.4311,0.17606,0.17604,-0.12999,-0.053476,-0.002461,-0.25757,0.15061,0.023096,-0.38497,-0.25754,-0.028005,-0.10453,-0.15548,-0.002461,0.12507,0.22704,0.43112,0.30357,0.074093,-0.35954,-0.18098,-0.20653,-0.23199,0.32908,-0.002423,-0.20654,-0.23203,-0.027956,0.12509,-0.15547,0.35462,0.38014,-0.12999,-0.18098,-0.23206,-0.15553,-0.00251,0.27808,0.17606,0.40565,-0.078972,-0.3595,-0.38504,-0.12998,0.023035,0.1506,0.22707,-0.078953,-0.13003,0.22703,-0.20652,-0.25752,0.30362,-0.078959,-0.10448,0.048549,0.023017,-0.002467,0.023084,-0.23201,0.048567,-0.053488,0.12508,0.023017,0.02301,-0.1045,0.12508,-0.15553,0.12508,0.023047,-0.078984,0.38012,-0.43602,-0.48703,0.074013,-0.00251,0.023023,-0.15548,0.12509,0.35464,0.074062,-0.23202,0.074087,0.35454,0.38006,0.02298,-0.18098,-0.18098,-0.25753,-0.4105,0.023084,-0.15548,-0.027987,-0.12998,0.17603,0.25254,0.3291,0.35464,-0.002485,-0.15551,-0.28302,-0.33399,-0.18096,-0.078923,0.15053,0.099528,0.022974,0.048482,0.20153,-0.10447,-0.053427,-0.053421,-0.23194,0.38018,-0.002454,-0.002521,0.20153,-0.07899,-0.25754,-0.28302,-0.027993,0.17609,0.22711,0.074057,0.12505,0.40564,0.074002,-0.20655,-0.23209,-0.41055,-0.28301,-0.027889,0.25265,0.12516,-0.13,-0.20653,-0.13005,0.12502,0.074038,0.17607,0.17609,0.20159,-0.41054,0.099546,-0.079026,-0.38507,-0.41057,-0.20653,-0.053458,0.32915,0.25262,0.099552,-0.18097,-0.078966,-0.02798,0.15051,0.099564,-0.12996,-0.33401,0.15057,0.15054,-0.12995,0.20154,0.20156,0.074013,0.023017,-0.10444,0.53319,-0.18105,-0.3851,-0.46154,-0.027913,0.30364,-0.23201,-0.20652,0.12505,0.22713,0.20156,-0.053525,0.048494,-0.41051,-0.283,0.55867,0.45665,0.2271,-0.028042,-0.20653,-0.283,-0.23199,-0.12997,-0.23202,0.20155,0.53316,0.048555,0.17609,-0.25754,0.07402,-0.027987,-0.18097,-0.35951,-0.3595,-0.027969,-0.002423,0.60969,0.55864,-0.053562,-0.10454,-0.20655,0.15064,-0.10447,-0.20649,-0.33404,0.023041,0.40565,0.35458,-0.4361,-0.38505,0.32919,-0.25748,-0.13001,-0.002461,0.20153,-0.078953,-0.02792,0.27805,-0.053495,-0.078972,-0.43602,-0.10452,-0.10454,0.27806,0.048561,0.50771,0.22716,0.12501,-0.079033,-0.30857,-0.97161,-0.64005,-0.18099,0.30364,0.17606,0.15052,-0.10445,0.5842,0.50766,0.32901,0.30348,-0.51259,-0.30856,-0.12998,-0.15545,-0.002374,0.22718,0.048549,-0.35956,-0.20655,-0.15554,0.20154,0.2271,0.27814,0.25259,-0.23201,-0.18097,-0.079026,0.022986,0.32903,0.35468,-0.28299,-0.25747,-0.12997,-0.053482,-0.15546,-0.23201,-0.079008,0.15051,0.68613,-0.053451,-0.181,-0.15551,-0.002467,-0.053495,0.45664,-0.078886,-0.30851,0.02301,0.12504,-0.053488,-0.181,-0.12999,0.023072,-0.078959,-0.078996,-0.10447,0.17605,0.048512,0.022992,-0.079002,-0.028005,0.32912,0.30363,0.38013,-0.053415,-0.33397,-0.43606,-0.35956,-0.20653,0.073984,0.12501,0.17605,0.099608,0.048549,-0.053402,-0.10447,-0.23201,-0.28303,-0.053488,0.20162,0.099534,0.35458,-0.283,-0.18103,0.25258,0.1506,0.048543,0.022992,-0.18101,-0.25756,0.048518,0.12507,0.81379,-0.078917,-0.53806,-0.56355,-0.20647,-0.002503,0.048494,0.023005,0.20156,0.30363,0.20158,0.074033,0.074051,-0.053513,-0.35951,-0.15547,0.04861,0.12505,0.43108,-0.25753,-0.18104,-0.02798,0.09954,-0.078923,-0.28299,-0.10449,0.17606,0.023023,0.074038,0.12507,0.1761,0.048555,-0.002443,-0.20648,-0.33401,0.15048,0.40555,0.40559,0.048512,-0.12998,-0.30852,-0.13,0.1251,0.38016,-0.23204,-0.35953,-0.25753,-0.2575,-0.027956,0.43119,0.40561,0.099552,0.099497,-0.053488,-0.41055,-0.028018,-0.00251,0.023017,0.074069,0.60968,0.17613,-0.538,-0.28297,-0.33398,0.074002,0.15051,0.27803,0.15057,-0.079021,-0.23198,0.20159,-0.02798,-0.10451,-0.078959,-0.078972,-0.053458,-0.12998,0.3036,0.30356,0.099583,-0.10452,-0.181,-0.15546,-0.23197,-0.078996,-0.027969,0.17604,0.27806,0.40559,-0.078972,-0.38502,-0.283,-0.30849,-0.002399,0.023041,0.25254,0.099491,0.329,0.45658,-0.078966,-0.25743,-0.43596,-0.48702,-0.20647,-0.079026,0.43107,0.68608,0.099583,0.023054,-0.15548,-0.15546,-0.20642,-0.23197,-0.30852,-0.002521,0.022961,0.45653,0.048536,0.074057,-0.002405,-0.002394,-0.002467,-0.12996,0.15063,-0.13001,-0.028011,0.099534,-0.30853,-0.20653,0.048543,-0.10449,0.15059,0.2271,0.40563,-0.027987,-0.28306,-0.2065,-0.20648,0.32915,0.15049,0.22707,-0.10447,-0.41051,-0.33395,-0.23202,-0.002516,0.43112,0.074013,0.15052,0.25257,0.048573,-0.12993,-0.15547,0.12507,0.073995,-0.0535,-0.15554,-0.2575,-0.002479,-0.002423,-0.078928,-0.078953,0.3802,-0.027969,-0.13,0.048458,-0.20655,-0.10451,0.07402,0.074051,0.20161,0.023035,0.048573,-0.00243,-0.20651,-0.002491,0.15054,-0.10451,-0.28303,-0.078935,-0.15548,-0.10447,-0.15548,0.45666,0.0485,-0.10449,0.074013,0.27807,0.40558,0.023054,-0.12995,-0.33403,-0.10449,-0.053482,0.12512,0.2781,-0.028066,-0.33408,-0.33405,-0.20649,0.15058,0.12509,0.40571,0.048604,-0.12999,-0.028042,-0.002546,0.048512,0.048543,-0.15545,-0.05347,0.099595,-0.10448,0.12505,-0.10449,0.048518,-0.078953,-0.027938,-0.002448,-0.10447,-0.20651,0.27804,0.35461,0.27809,0.22706,-0.00251,-0.028018,-0.25751,-0.35953,-0.48702,-0.28297,-0.15544,0.30365,0.71173,0.023023,-0.028036,-0.053568,0.022998,-0.078977,0.17606,-0.15546,-0.10443,0.048598,-0.002448,0.12506,0.15052,0.15052,-0.18103,-0.12998,-0.053446,0.023047,-0.15546,-0.12996,-0.15548,0.099564,-0.23205,0.023047,0.38011,0.38011,-0.15551,-0.13002,-0.002491,-0.079014,0.15059,0.22711,0.17616,-0.30853,-0.30857,-0.13001,-0.25753,0.35462,0.3291,0.074057,-0.25743,-0.181,0.023029,0.048555,0.22702,0.32909,-0.15548,-0.18097,0.074038,-0.028018,-0.181,-0.002485,-0.10445,0.2526,0.20155,-0.10451,-0.18101,-0.20646,-0.027962,-0.3085,0.15059,0.17609,0.38011,-0.12994,0.20151,0.45657,0.022974,-0.33402,-0.38502,-0.23201,-0.283,-0.13,0.17606,0.22708,-0.027913,-0.28301,0.074051,0.35463,-0.078972,0.53321,-0.12999,0.022998,0.20152,0.023035,-0.13002,-0.23201,-0.12999,-0.20649,-0.2065,0.023084,0.20159,-0.027938,-0.002521,0.09957,0.30363,-0.00251,0.17601,0.22708,-0.33398,-0.15546,-0.18098,-0.28305,-0.20653,0.022998,0.60967,0.32904,-0.23198,-0.23199,-0.10445,-0.13,-0.027962,-0.05347,0.35461,0.22707,-0.25753,-0.12996,0.12512,-0.02795,-0.053519,0.023035,-0.053513,-0.002521,-0.053537,-0.10444,-0.027907,-0.12998,0.023017,0.43117,0.023047,-0.25751,0.023065,-0.079002,-0.13005,0.12503,-0.027969,-0.15545,0.25259,0.38013,0.43113,-0.15548,-0.30855,-0.20653,-0.48706,-0.18103,-0.078923,0.048598,0.48216,0.30362,-0.13002,-0.12999,0.15054,0.15054,-0.079075,-0.2065,-0.078959,0.048555,0.074062,0.25261,0.023078,-0.66553,-0.12996,-0.283,0.22707,-0.1045,0.17604,0.3545,-0.12996,0.15059,-0.15545,0.099559,-0.002485,0.15055,0.22702,0.20159,-0.35954,-0.38505,0.023023,0.074155,-0.027931,0.023072,0.25264,-0.027956,-0.35966,-0.56368,-0.15548,-0.078984,0.20164,0.60976,0.099601,0.099503,-0.13001,-0.15559,-0.13007,0.25259,0.12507,-0.18096,-0.10443,0.1506,-0.002448,-0.30851,-0.027944,-0.002497,0.38008,-0.053519,-0.15552,-0.079008,-0.002472,-0.002448,0.15054,-0.10448,-0.20647,0.074142,0.074044,0.048561,-0.28303,-0.002485,0.30358,0.048561,-0.30856,-0.33402,-0.078977,0.17607,0.35458,0.048525,0.20155,0.38012,0.2271,0.074087,0.099546,0.2271,-0.51248,-0.15551,-0.23206,-0.46156,-0.20644,-0.002472,0.023035,0.15054,0.074002,0.048543,0.074062,0.074057,0.27805,-0.079021,0.43113,0.30361,-0.12994,-0.12993,-0.181,-0.027974,-0.28298,-0.002516,0.022998,-0.25756,-0.078966,-0.18098,0.63518,0.17609,-0.30851,-0.25748,0.17603,0.22704,0.15052,-0.23202,0.023041,-0.10446,0.074051,0.04858,-0.25744,0.099564,0.074062,0.53313,-0.002565,-0.002485,-0.23198,-0.027969,-0.053482,-0.027969,0.099564,-0.05347,-0.027913,-0.3595,-0.027962,-0.18103,-0.027974,0.22705,0.25259,0.50765,0.12505,-0.25754,-0.35954,0.22713,-0.23201,-0.23201,-0.18101,-0.1045,0.17605,0.09957,0.023041,-0.053433,-0.10449,-0.12998,0.15054,0.17607,0.12507,0.17609,-0.18097,-0.2065,0.27808,0.55861,-0.2065,-0.30856,-0.18105,-0.028018,-0.002436,-0.18101,-0.078959,-0.12996,0.50774,0.22712,-0.181,0.12504,-0.028054,-0.35956,-0.053495,-0.002448,0.12509,0.023047,0.17611,-0.12995,0.12508,-0.2065,0.12499,0.22704,-0.18098,-0.18098,0.074062,0.2271,-0.002454,-0.027969
