-0.10453,0.20159,0.45665,0.023047,-0.23198,-0.027938,0.023072,0.45668,-0.18101,-0.2576,0.6352,-0.53814,-0.10451,0.40568,0.35465,-0.58911,-0.28305,0.8393,-0.56365,0.3291,0.12506,0.048536,0.023047,0.4822,-0.99726,-0.078953,0.43117,-0.027938,0.048536,-0.002485,-0.079014,-0.053482,-0.002467,-0.05347,-0.25752,0.074069,0.048555,0.20163,0.45664,0.074013,-0.13004,-0.20653,-0.12998,-0.181,-0.10447,0.30365,0.27812,-0.30852,-0.002479,-0.00251,-0.51266,0.15054,0.58421,0.048592,0.074081,-0.74211,0.099552,0.60973,0.15054,0.12507,-0.33408,-1.839,0.15062,1.8086,0.27809,0.12506,-0.79319,-0.46157,-0.33408,-0.028018,0.17605,0.15055,-0.13005,-0.18104,0.63531,1.477,-0.35953,-0.58912,0.099588,0.96681,-0.69118,-1.2013,0.43113,0.40566,0.63521,-0.30858,-0.4871,-0.078984,-0.28301,-0.79319,0.50764,-0.20659,0.1761,0.81389,-0.92066,-0.20651,0.50773,0.4567,-0.1301,0.68604,-0.35957,0.17607,0.22721,-1.7369,-0.6656,0.17607,0.3291,-0.053506,0.30357,0.45663,-0.51269,0.45667,0.6352,-1.941,-1.788,0.43122,3.1351,1.834,0.73729,0.048506,-1.9411,-4.1092,1.8596,4.0788,-0.002528,-1.3544,-2.1706,-1.839,1.0689,0.63528,-0.00251,0.27802,-0.4362,1.8851,-0.43604,1.5791,1.2985,-1.0738,-1.1503,-1.9919,-2.196,0.50757,2.7522,0.15055,-2.8849,2.3954,4.691,-0.56364,-1.2524,-0.69123,-0.12989,-1.8644,0.20164,-0.02792,-0.10445,0.27812,-1.737,-1.0993,-0.38515,1.4259,3.3901,1.8851,-0.53818,-0.38502,-2.7317,-2.5276,1.6046,1.2984,0.94135,0.20161,-0.56367,1.5025,-0.8698,0.63507,-0.3342,-0.002491,-2.5275,-0.10431,-0.69112,0.15059,0.48225,2.6758,2.0125,-0.28317,-3.2928,-1.5329,-1.4564,0.15054,1.987,1.6046,-0.89507,0.30363,-0.20652,-1.2268,0.3547,0.30349,0.27795,0.71162,-0.89509,-0.4871,2.523,-1.2523,0.22713,0.50767,-0.079075,-1.7626,0.125,-0.053476,-0.078923,-1.5328,0.30364,2.2932,0.27814,-0.99723,-0.56358,-0.4106,-0.86983,0.38007,4.6398,1.6044,0.38012,-0.99715,-3.3694,-0.74199,1.6302,-1.3543,0.099588,0.68615,0.073995,-1.3034,-0.05347,-0.66567,-0.89531,1.2727,3.2625,0.048451,0.66078,-1.4818,-1.2013,-0.33396,-1.048,-2.8592,-0.46159,0.58397,1.6554,2.9564,0.76273,-1.9665,-0.74214,-1.0738,-0.92071,1.273,-0.58916,0.30357,0.35469,0.27805,-0.33415,-1.1248,-0.053476,-0.8698,1.6555,1.5281,0.66089,-3.4969,3.0584,1.7066,0.20153,1.7321,-1.9155,-2.8083,0.073946,1.0686,-1.0482,1.4516,-0.38492,-0.35959,-0.53815,1.1197,0.27832,0.099583,-0.2065,-2.7828,0.76282,9.3589,0.38016,-1.9154,-2.7829,-2.0176,0.048378,-1.0739,-0.18091,1.936,-0.028018,-1.3797,-0.25749,1.5279,2.3441,-0.18103,-1.4053,-0.002472,0.73734,-1.9154,0.58429,1.1199,-1.1758,2.3441,1.1454,0.96672,-2.9868,-2.247,1.4516,-0.25761,0.38,0.30341,-0.48732,-0.002405,-0.86943,-1.0735,1.6557,1.3493,0.91555,-0.13012,-1.5074,-1.2267,1.4517,-2.6041,3.3388,4.206,0.73703,-1.4309,-2.5277,-1.8644,-1.8898,3.0841,0.38022,-0.30853,-0.10459,-0.92074,0.048482,-0.69122,0.89031,0.17611,-0.12994,-0.8187,-0.53812,-4.0072,5.0991,7.3693,0.4564,-0.5382,-2.8083,-1.6603,-1.3798,-2.0685,-0.10449,0.15047,1.4003,-0.12993,-0.25745,0.81384,-0.71661,-0.385,0.63526,0.25248,-0.10458,1.3492,0.7628,-1.2268,-0.1555,-1.1247,0.45679,0.89044,1.1196,-0.7167,0.38015,-2.0686,0.27817,-0.84406,-0.25748,0.35466,-0.81876,0.15058,0.83914,0.38008,0.6096,0.09965,0.27817,-1.1248,1.6045,0.81383,-1.4308,-0.12999,0.96672,-0.66575,-0.69129,-0.94627,-0.97164,-1.992,2.6249,1.3495,0.32912,0.099503,-1.0993,0.78833,0.96679,-0.053727,-1.5841,0.89043,1.7831,-1.4308,-1.3542,-0.79305,-2.4512,-1.1758,4.3082,4.7163,-1.0484,-1.3033,0.30369,-0.66565,-2.2981,-1.3799,3.0329,0.53309,-0.66575,-0.51259,-0.53788,-1.6348,-1.1757,-0.027907,3.0074,1.3493,-0.30877,-0.48729,-1.0484,-1.2013,0.5332,-2.2216,5.8642,2.7012,-1.6605,-2.5785,-2.9356,-2.6039,-1.9408,-0.10463,3.2877,0.63499,2.1656,0.53308,-0.84431,0.15062,0.099742,-1.6603,-1.8899,2.8033,0.12509,0.99239,-0.71662,-0.99745,-3.7778,2.5225,3.1606,1.6301,-4.8998,0.68631,1.9364,-1.0738,-0.4617,0.12483,-2.0176,-0.15546,-0.002394,-0.35946,-1.9409,3.2371,3.1348,1.8849,0.25252,-0.94617,-1.6349,-2.1196,-0.71666,1.0689,1.5281,0.99237,-0.51268,-1.686,-0.28309,0.38012,-0.4871,-0.2065,-0.43614,-0.002516,0.63508,-0.5637,1.9107,-0.15523,-1.3287,-0.20639,-1.3034,-0.58915,0.55861,1.1199,1.9104,1.7318,-1.2527,1.4261,0.63537,-2.1195,-1.2011,-1.5327,-1.7113,0.48219,-1.2525,3.5429,1.1964,-0.23204,-0.58918,0.50761,-1.0226,-1.4053,0.60975,0.81362,1.1453,0.4566,-0.23197,-1.6603,-1.4051,-0.5379,-0.13,-0.5892,1.7064,0.68612,1.1197,-1.6352,1.0432,4.793,-1.8644,-2.3745,-2.4,-0.9971,0.35466,2.0126,-0.74223,-0.84419,-0.74219,0.73716,2.0636,0.76266,-0.28307,-1.4055,-0.23212,1.222,-0.15548,-0.002381,-0.48706,-1.2012,0.099711,-1.5329,-0.53809,2.6249,-1.737,0.76263,-1.8646,4.3336,2.6756,-0.25764,-1.3288,-1.5584,-1.6604,-2.0173,-2.553,1.2731,1.8596,-0.28322,0.94131,2.3186,-0.4106,0.17608,-0.99715,-1.1247,-1.5329,0.20161,2.038,2.7267,0.89019,-1.686,0.63528,-1.8135,-0.5891,-1.8899,-0.38506,-0.41063,0.94123,1.9361,0.27825,-0.25746,-0.38506,-0.10443,-0.23209,0.91568,-0.56375,1.2473,1.9363,-1.2266,-1.6857,-1.0736,-1.5074,0.63522,1.2729,0.2781,-0.89532,-0.89537,2.1144,2.089,-1.2015,-0.46147,-1.2011,1.4516,2.5229,-1.8644,-0.002528,-0.74222,-0.053482,-0.56356,0.7118,-1.6605,1.1709,-2.1961,1.0433,1.528,1.1707,0.91572,-0.76767,-0.89509,-1.4051,-0.86958,-0.89509,-1.5839,0.099436,4.6398,1.6042,1.3748,0.099412,-1.8645,-0.53809,0.32927,-1.7114,1.222,-0.002497,-0.25756,-0.25757,-0.30853,0.76275,-0.64004,-0.58906,0.50774,1.732,1.834,-1.125,-0.84426,-0.20642,-1.1501,-0.56369,-1.2779,-0.2066,0.71173,1.0689,1.1453,-0.078923,-0.38497,-1.9665,-0.41039,1.8596,0.5585,0.17595,1.0943,1.6807,-0.53816,-1.7369,-1.9407,-1.8898,-0.46151,-0.12996,-0.15549,0.12512,2.0381,0.89031,0.58394,0.15037,0.55844,0.048415,-0.58909,-1.3032,-2.5276,0.66094,3.8239,-0.10452,-0.79338,-0.74231,0.022901,0.50768,-1.8134,-2.2724,-1.8133,0.20169,4.5377,3.2369,0.73704,-0.94634,-1.4819,-1.8898,-1.1502,-0.028005,0.48206,-1.6349,0.099657,2.1913,2.1655,-0.10452,-0.28312,-0.61466,-1.4055,-0.10452,0.48219,-0.027767,-0.81837,-1.2776,-1.0227,-1.686,0.40559,4.8182,-0.35981,0.22694,-0.51257,-0.58909,-1.3799,-0.02798,0.8903,-0.71664,-1.2012,-0.12993,0.25263,-0.4872,3.3644,1.5535,-1.1247,-1.1502,-1.6859,-0.89523,-0.38513,0.22713,2.0892,0.91573,0.17597,-0.71677,-0.56358,-0.15545,-1.4564,-0.89532,1.0689,1.9871,1.3748,1.3238,-0.97167,-0.89513,-1.9918,-1.1756,-0.81857,-0.28313,2.4716,2.7265,1.8337,0.91559,-1.5328,-1.7878,-2.1703,-5.2822,2.6761,0.89025,2.5991,1.655,0.71143,0.71164,-1.5327,-2.0937,-2.0938,-0.99714,0.81384,0.63521,1.6299,1.3748,0.6605,-1.0228,-0.92073,-0.74212,2.4463,2.2932,-2.4003,-1.8133,2.778,-0.66572,-1.176,-1.6094,-0.7166,-0.002381,-0.64009,-0.12994,-0.33407,-0.8952,0.89023,1.477,2.8287,1.0686,0.533,-0.30854,-2.145,-2.0939,-0.9971,-0.20639,2.7525,1.2728,0.22693,-0.99737,-2.1706,-0.64017,-0.41052,0.048653,-0.25757,0.12499,3.033,1.5024,-0.46165,-1.5074,1.1454,-0.53819,-0.33396,-1.3544,0.5076,1.4259,-1.6349,-0.86968,1.3751,1.2219,1.7574,-0.64032,-2.0686,-0.41052,-0.053451,-0.0791,0.48203,-0.53806,0.17622,-0.23196,0.60982,-1.6859,0.76276,1.9361,-1.1759,-0.69117,-0.28301,1.5024,-0.028029,0.32893,-0.15556,-0.53817,-1.4309,-0.20642,0.814,-0.35953,0.17595,0.94126,-1.4565,1.8342,1.9361,-0.53795,-2.043,0.17617,-1.0227,-1.1248,-0.89534,1.0942,-0.20666,0.63526,5.4052,0.15051,-2.0686,-2.5276,2.0127,-0.002479,-0.48716,-1.6859,-1.9155,2.931,1.1708,0.38011,0.20158,-0.1554,-1.3288,-1.2012,-0.81874,-0.94638,1.7063,2.7521,-1.1503,0.58425,3.1861,-0.027834,-2.4001,-1.4818,-0.9462,-0.28302,-2.8594,1.5789,5.5837,0.22691,-0.46168,-2.8336,-1.2268,-0.66548,-1.6604,2.0637,1.7829,0.96643,0.63508,2.3953,0.35468,-1.9409,-2.4255,-2.3747,-1.4309,2.3698,-1.2014,4.2827,0.38016,-0.33416,-0.4871,-0.66569,0.30364,-0.25762,-0.43609,-0.89526,-0.58898,1.7067,1.4261,-0.05347,-1.4055,-0.20665,-1.635,2.7779,2.4718,-0.28315,-0.43628,-1.4055,-1.3287,-0.74204,-0.41052,-0.18093,0.074106,0.25264,1.2985,-0.74234,0.63504,1.681,2.2421,0.91577,0.022998,-2.4766,-4.0581,1.4006,2.1147,-0.46167,0.176,0.30355,-1.5329,-0.94608,-0.28292,1.1711,-1.7625,2.1145,0.63492,0.7116,0.43103,0.20159,-0.92066,-0.46151,-0.84412,-1.3288,1.5026,1.273,0.43105,-0.028237,-2.5025,1.9106,2.9311,-1.5583,-3.0377,0.71185,0.45666,-2.0686,1.0688,1.6299,0.02298,-0.66558,-1.1247,-1.1246,-1.9155,0.30361,3.9256,0.8901,0.96665,1.8593,-0.053616,-1.0227,-0.81857,-0.58893,-1.7623,-2.4,0.81401,-0.10444,5.4306,2.7265,-0.86999,-0.94634,-2.043,-2.0939,-1.5838,-0.10449,-1.8136,-0.81872,4.1809,3.7726,1.9106,-0.25753,-1.7624,-1.3034,-0.99731,-1.0483,0.27805,-0.05366,-0.51257,0.099803,0.4059,0.17627,0.023133,-0.33419,1.1197,-0.53818,-0.58921,0.048512,0.17602,-1.2525,3.237,1.8596,-1.4053,-1.0227,-2.6041,-2.0685,-0.15556,0.63521,-0.35966,2.0125,2.6246,-0.2321,0.32934,0.60979,-1.7623,-1.2266,-0.66555,-0.6912,0.48214,1.2728,0.022876,-0.33432,0.71164,3.6196,1.987,-1.7624,-2.9357,-1.9155,-0.28281,0.53326,-0.64012,-0.13005,-0.13009,0.22697,3.1094,-0.58902,-1.5327,0.48209,-0.18108,1.0175,1.8083,-0.25756,0.8393,0.89055,-1.6858,-1.8644,-0.742,-0.84399,-0.51264,2.8032,2.0377,-0.74228,-1.1757,-2.9357,-1.7624,1.477,2.9309,0.22691,0.099223,2.3694,0.48224,-0.79302,-1.048,-1.1501,-1.1756,-0.078917,0.38014,0.099479,-1.1759,1.2728,2.6248,0.15042,0.20152,-0.61474,0.48232,-0.53789,-1.3287,-2.5787,0.45648,1.8594,3.339,0.32923,-2.247,-1.2013,-1.3032,-0.64003,-3.0123,-0.53823,5.3795,2.9563,0.38003,-0.30853,-1.7369,-0.53804,-1.5328,-0.027974,0.91575,0.35454,1.0178,-0.53809,-0.18102,0.074026,-1.3033,0.074142,-0.46147,0.71175,-0.078959,2.1146,0.73725,-0.38528,-1.3798,-0.94608,-1.2268,-1.7369,-2.1961,1.681,2.7267,0.83927,0.63512,0.96676,0.17609,-1.3287,-1.5073,-0.74211,0.15051,-1.431,0.89026,0.7116,-0.13007,2.4463,0.66078,-0.46165,-1.6859,-0.76761,0.27818,-0.86974,2.7014,-0.99726,-0.15548,-0.10441,-1.0228,0.25262,-0.028114,-0.18111,-0.92074,-1.2012,-0.3339,0.048647,0.91567,2.2931,0.30333,0.6097,-0.23198,-1.3542,-1.3032,1.4005,1.7065,-0.76772,-0.35968,-0.66576,-0.84427,0.50777,-0.027834,0.30364,0.099564,-0.94623,0.27814,0.66075,-0.28307,0.2271,1.9107,-0.48725,-0.69124,-0.30862,-0.18106,0.55865,1.4005,-1.839,-0.25751,0.02317,-0.97169,0.48219,0.40562,0.40557,-0.5381,-0.94617,1.0433,0.94124,0.86471,0.22699,-0.18088,-1.0227,-1.9666,0.17619,0.38028,-0.43609,-0.61474,2.4715,0.38011,-0.81857,-1.1501,-0.35954,-0.46162,0.20164,1.7575,0.048487,-0.28308,-1.0482,1.0688,1.3239,-0.30854,-0.94622,-0.25751,0.074038,-1.8135,0.43112,0.99227,2.3697,1.8339,-1.3799,-1.8388,-0.84393,-3.1397,-1.7369,2.1402,3.7216,1.4005,-0.35968,-2.1962,-1.329,1.0178,1.9359,-0.23203,-0.13002,-0.76768,-0.053372,0.66092,-1.0993,-0.5891,-0.053421,-0.18096,2.1147,0.58413,-0.28314,0.073873,-0.69123,-0.61465,-1.5328,-0.28294,0.6863,-0.43616,-0.15568,1.1709,2.0892,-0.33399,-0.15552,-1.9155,-0.48715,-0.28299,1.732,0.40548,-0.41073,0.50778,0.099675,-0.71654,-0.74214,-0.41059,0.7373,-0.23206,-0.053555,1.3493,-1.9412,0.63519,2.5995,0.20171,-0.66556,-0.48707,-0.18109,-0.20663,0.20158,-0.7423,-1.6348,-2.5786,3.0075,2.2421,0.17601,-1.1756,-0.56364,0.099424,0.073946,-0.71669,1.1199,0.68632,-0.74225,-1.1503,1.5534,2.0637,0.09957,0.17616,-0.84413,-1.2268,-0.76771,0.12501,-1.2013,-0.64004,-0.35952,-0.71676,-0.18112,3.7726,-0.5636,0.32911,-0.15547,-0.84415,-0.79312,-0.079148,1.4515,0.78819,-0.25753,-0.48702,-1.6348,-0.1044,1.7321,-0.35961,-0.48725,-1.992,3.3135,1.6043,1.0176,-0.61479,-1.6093,-1.9663,-1.5583,-1.4052,-0.89517,2.9564,4.0788,1.3239,-1.0739,-0.92087,-1.2524,-0.64013,-1.5074,-1.4054,1.8596,1.8086,0.38031,0.5586,-0.38522,0.68604,-1.3035,1.7066,-0.94622,-0.38489,-0.35945,-0.94608,-2.5276,2.0892,1.7574,-0.28315,-1.1503,-0.5637,-0.53814,-0.53799,-1.1756,-1.2778,2.1401,2.7521,1.0176,-0.053573,0.12508,-0.61455,-2.043,0.15071,0.45676,0.60967,0.78833,-0.76771,-0.8442,-0.9718,-0.18115,0.38006,2.1401,-0.6911,-0.69111,-2.2981,-0.20646,2.7778,2.2167,-0.84425,-0.94633,-1.2268,-1.2268,-1.1503,0.48216,1.8596,0.25254,-0.2066,-0.74212,2.0382,1.7066,-1.1502,-1.0737,-1.2268,0.99218,-0.13012,-0.33406,-0.51258,0.35462,-0.30856,0.17602,-0.002443,-0.76761,-0.027895,0.50772,0.66067,0.099497,1.3748,1.1197,-0.46161,-2.6553,-1.4052,3.3647,-0.48714,-0.58928,1.0177,0.15064,-1.7878,-1.7879,0.2782,-0.30851,0.1761,0.22708,0.3545,1.1453,1.2218,-0.028085,-1.8902,1.5279,1.6046,1.375,0.71177,-0.71663,-2.6041,-2.4256,-0.15545,-1.0227,0.91585,0.2526,0.22699,-1.2524,1.4003,1.7319,0.45657,-0.58898,-1.4563,-0.25738,1.324,0.3547,-0.10445,-0.46159,-1.0737,-0.43609,-0.23213,0.20133,1.6299,1.2729,-1.0737,0.32922,1.1199,-0.66577,-0.74233,0.07413,-0.58906,-0.56345,-0.51253,-0.079021,0.25248,0.15054,-0.48709,2.3188,-0.002418,-0.10457,-0.30868,-1.0228,1.1964,1.0434,-0.23193,-0.10439,-0.33413,0.32913,-1.8901,0.30366,0.6607,-0.20652,-0.71663,-0.86968,0.20163,0.86469,0.76261,-0.027987,-0.027956,-0.053433,-0.18103,0.20159,0.55874,0.023041,-0.18095,-0.002491,-0.20655,-0.13001,0.38016,0.099583,-0.56359,-0.20656,-0.12996,-1.431,0.22705,3.1604,-0.15544,-0.53806,-1.0737,0.48229,-1.0228,-1.3544,0.71174,0.6862,0.43101,-0.13006,-0.13006,-0.97174,0.43116,3.033,0.35456,0.96681,-0.28302,-1.8643,-1.3032,-0.64007,-0.76773,-0.86986,0.35454,2.1912,-0.46163,-0.71669,0.099595,2.3188,0.53317,-0.00257,-1.329,0.66078,-0.12996,-1.2012,-0.078788,-0.56351,0.32914,0.17599,-0.23217,0.83914,0.48203,-0.25758,0.73732,-0.66555,-0.027871,0.8903,-0.078923,0.48208,-0.4361,-0.53814,-1.3797,-0.25745,-1.839,0.91574,1.834,1.5279,0.27811,-0.28298,0.83927,-0.10456,-1.1504,-1.4055,0.66076,-1.0738,2.2167,0.53321,0.4823,-0.71652,-2.4256,-0.38519,1.681,0.35464,0.6607,0.02295,-1.1504,-1.2522,0.30378,0.76279,-0.64025,1.1197,0.58418,-0.43607,0.099595,-0.51263,-0.69108,0.76279,0.35465,-0.58916,-0.30861,1.8085,-0.48711,-2.4769,4.6654,1.3239,-0.8442,-1.5073,-2.3489,-1.3542,0.53325,-0.1301,-0.15557,0.78813,1.0688,1.7321,-2.3239,-0.18095,1.2474,1.1454,-0.20636,-1.2268,-0.74221,0.048329,0.73724,-1.1247,-0.97163,-1.1502,0.99239,-0.25752,0.30357,1.3493,2.089,0.27798,0.074026,-0.28306,-0.74217,-1.9155,1.273,0.35477,-0.76757,-0.18095,0.048567,0.32893,-0.35972,-0.99739,1.9362,-0.7674,-2.196,-2.1451,3.2625,2.6502,0.048512,0.22709,-0.4871,-0.9973,-0.79326,-2.0941,-0.33399,2.2677,1.2474,1.7064,-0.46172,-0.79318,-0.46156,-0.99715,-0.74206,-0.46159,-0.027871,1.477,0.81366,0.099564,-0.25761,-0.28306,-0.76773,-0.51262,0.32912,-0.3341,0.58427,0.99232,-0.79324,1.1454,0.38015,-0.84416,-0.35954,-1.227,0.32909,1.63,0.60979,-1.8643,-0.33386,-0.84409,-0.46157,0.63507,1.5788,2.242,-0.002467,-1.0228,-1.4309,-1.8644,0.25273,2.0382,-0.46162,0.86452,0.55849,-0.35971,-0.64011,-1.6349,-0.43588,0.63551,-0.053219,-0.12991,-0.74223,2.293,0.78808,0.60951,-1.0229,-2.3237,2.5484,0.68642,-1.5073,-0.66568,-0.61472,-1.9156,1.0688,2.1912,-0.74211,0.58424,0.55859,1.5279,-0.28327,-0.69111,-0.9972,-1.1757,-0.76752,-0.53801,-0.25745,0.48223,-0.28299,0.22696,1.5024,1.2472,1.4003,-0.053586,-0.38518,0.4056,0.20159,-2.4508,-1.201,-0.002363,-0.079106,0.099436,0.27814,0.63523,-1.788,1.3749,0.76278,-0.71672,1.426,1.8597,-0.6657,-1.2014,-0.74239,-0.6148,-0.43608,-0.53794,-0.66553,-1.3544,1.8852,2.7779,0.6097,-0.4361,-0.51258,-0.97177,-0.1556,0.48205,-0.002418,0.68629,-0.64011,0.35462,-1.3033,-0.43604,1.5536,-0.4106,-0.51263,-1.5331,1.7064,2.2931,-0.38514,-1.4818,0.074136,0.30371,-0.89512,-0.28295,-0.20657,-1.584,1.9106,1.2473,-0.53814,-0.43603,-1.6093,0.81387,1.6046,-0.74215,-0.35966,-0.053622,1.8848,-0.33419,-0.74218,-0.76757,0.96706,-0.53796,0.099577,-0.02809,-0.10456,0.15038,-0.20652,-1.3289,0.91592,0.78846,-0.33401,-0.20652,-0.81878,0.55866,0.38011,0.76273,-0.61468,-0.99725,-0.66558,-0.64004,1.0688,-0.23215,0.32905,-0.4105,-0.99712,2.3442,2.0126,-1.8135,-1.0993,0.40563,0.53304,0.55859,-0.94625,-0.56358,-0.4106,-0.053519,-0.53793,-0.48694,-0.64011,-0.33405,1.2729,3.1094,-0.56361,-1.2014,-0.23212,0.60969,0.4056,-0.10454,0.12493,-0.25759,-2.0685,0.17616,0.63536,-0.71657,0.91584,-1.0738,0.20155,2.9308,-0.18106,-1.0737,-1.0992,-1.2013,-0.35961,0.3036,0.20166,0.30356,-0.002577,0.53303,0.66067,0.6608,-0.43593,-0.2574,-0.56351,-1.0483,0.20166,0.15061,0.20155,0.76264,-0.23205,-1.0483,0.17612,-0.028114,0.20148,0.94114,0.27818,-0.61453,-1.3287,0.58437,0.81385,-0.79316,-0.3341,-0.51263,0.66067,-0.61467,-0.079063,-0.027907,1.324,-0.58914,-0.99723,1.783,-0.053598,1.7319,-1.4055,-0.79326,2.3698,-0.23192,-2.6552,-0.15551,2.0383,-0.84415,0.17612,0.58417,-0.18119,-0.028066,-0.66566,-0.53805,0.099552,0.074051,1.0178,-0.41055,-0.33391,2.0892,-0.10464,-0.35969,0.022998,0.20165,1.7576,-0.71656,-2.0685,-0.53798,-0.74204,-0.81876,0.12505,-1.4054,1.0942,3.1602,1.3747,-2.6044,1.2986,1.2476,-1.3031,-0.86955,-1.9155,-0.99734,1.2472,1.8085,1.1708,-0.51265,-1.1247,-1.2777,-0.56356,0.60977,-0.56366,0.27808,0.58416,0.63509,0.68617,-0.33402,-1.1502,0.58432,0.94148,-0.53814,0.227,0.66048,-0.64018,-2.1961,1.1964,0.60977,0.38016,-0.3341,-0.33398,-0.69103,-1.5583,-1.6604,0.96679,0.78815,1.0687,1.8086,-0.79316,-0.15554,1.1963,0.63518,-0.94627,-1.0483,0.68632,0.53333,-1.3032,-0.84419,1.8086,-0.30861,-0.5892,-0.51274,0.22694,0.40558,-0.38499,-0.74205,-0.35939,-0.078947,-0.002516,2.1911,1.2985,-0.41047,-0.41064,-0.23208,-0.71677,-1.3288,0.023114,2.3952,-0.079008,-0.79324,0.25256,-0.6657,-1.5329,-2.0685,2.3953,1.0179,0.53315,-0.71657,-1.0227,-0.028011,0.09951,0.53306,0.94125,-0.28305,-0.41049,-0.33402,-0.43605,0.27802,0.73724,0.32911,-1.2013,0.83949,-0.10439,-2.094,1.9106,2.1656,-1.7881,-0.7168,0.96669,1.4514,-0.58918,-0.15545,-1.2778,-0.5381,-0.43607,-0.10449,-0.53806,-1.3543,1.4259,2.8034,0.17607,0.099491,-0.13005,0.43118,-1.5074,-0.002461,0.30371,1.0179,-0.76765,-1.6859,-0.13,0.86483,-0.13009,-0.64025,-0.48717,-0.00251,2.7268,-0.1045,-0.10452,-0.69107,-0.66556,-0.97165,0.074002,0.96671,0.94136,-1.2523,0.15063,2.2168,-0.79326,-0.53806,1.222,-0.84431,-0.5127,-1.4053,0.71172,-0.078947,0.73706,0.27806,-0.079008,-1.8134,0.20174,2.1659,-1.5329,-0.028114,4.8948,0.048317,-1.4819,-2.7317,-0.43588,-0.61448,-0.74204,-0.48705,-0.99737,1.1962,2.4462,1.5024,-0.1045,-0.79327,-0.3085,-0.078941,0.17612,-1.1503,0.12508,0.83923,1.9615,-0.25774,-0.7167,-0.69105,-1.9153,-1.2776,2.3444,-0.53813,0.099424,1.3493,-0.30866,0.68624,-0.76761,-0.38502,0.15065,-1.0483,0.7881,-0.51277,0.1251,0.71166,0.81363,-0.41051,-0.43604,-0.43602,0.20157,-0.38495,1.1966,0.73742,1.783,-1.1504,-0.99734,-1.7625,0.25255,0.53314,-0.13013,-0.3852,-0.028054,1.3494,0.35465,-0.02792,-0.18097,-0.35953,-0.48703,0.04861,1.018,-0.002405,-0.5893,0.60962,-0.94633,1.0688,0.5587,-1.9154,-0.53804,0.32926,1.3751,-0.76765,-0.9462,-0.51279,0.6605,0.4821,0.38011,0.50781,0.1762,-0.7166,2.2677,0.63511,-0.41068,-1.0227,-1.2268,-1.0482,-0.20656,0.12508,0.63521,0.53315,-0.078947,0.3547,-1.0993,0.073953,2.8288,0.6352,-0.38516,-1.4818,-1.1247,1.375,-0.81868,-1.0737,0.6098,0.48225,-0.99723,-1.9411,-0.92087,1.8341,3.7726,0.048555,-0.30864,-1.788,-1.2779,0.50774,1.6555,-0.028047,-1.1247,-1.6093,-0.97163,1.5281,-0.38511,-0.30859,1.2984,-0.23207,-0.38506,-0.18106,-0.20663,0.50758,-0.66566,1.5026,1.7576,-0.30855,-0.84412,-1.2523,-0.5382,-0.43612,0.81373,-0.56369,-0.23201,1.1454,-0.69117,1.7831,-0.2574,0.023078,-0.30868,-0.9461,-0.9462,0.4822,0.27806,1.8595,0.25254,-0.33404,-1.1502,-1.2012,-0.71665,0.02301,0.45665,0.4311,-0.002491,0.76273,0.12507,-0.41054,1.9617,-0.5381,-1.2015,2.6758,0.99227,-0.69125,0.38014,-1.4053,-1.6349,-1.2267,-0.64009,-0.3086,-0.58916,-0.69107,1.8341,1.2474,0.074051,1.0178,0.76273,-0.18111,-0.079088,0.22706,-0.64021,-0.56356,-0.51261,0.30363,0.66078,-0.46157,-0.71649,-0.66558,-0.053415,0.76274,-0.97187,1.8595,0.68616,-0.46169,1.4005,-0.97176,-0.12998,-0.86963,-0.58916,-0.58913,-1.0227,0.43125,0.94128,1.6044,-0.12998,-0.94625,-0.23209,0.40574,-1.3034,-0.002399,2.1912,-1.4565,1.2217,0.35461,-1.0737,-0.46149,-0.6146,-0.12991,-0.3086,0.94124,-0.35957,-0.48708,-0.05347,1.0689,1.0433,-2.0431,0.7117,2.1402,-0.6912,-1.737,0.43103,1.0689,-0.20652,-0.86969,-0.46148,0.22722,-0.66565,0.63508,0.68626,-0.181,-0.23199,0.83923,0.073953,0.53309,-0.10438,-0.48701,-0.18101,-1.0737,0.25272,-1.1758,0.22706,2.8289,-0.18107,-2.0687,1.1453,2.038,-0.56364,-0.10439,-0.6146,-1.2269,-0.58913,1.8851,-0.10452,-0.53811,-0.41055,0.074149,-0.61452,-0.33401,-0.35953,0.78807,1.7828,2.5736,-0.5382,0.25272,-1.0991,-1.2778,-2.0429,-0.35949,-0.69115,1.4259,0.22702,0.53314,-0.13005,0.048506,0.22701,-0.15547,0.60952,-0.3341,0.099637,0.55882,-0.28294,-0.43595,-0.078923,-0.69111,-1.0229,2.038,1.5534,-0.35964,-0.51253,-0.18092,-0.76771,-0.30853,-0.46154,-0.028066,0.32898,-1.7116,2.8798,1.5537,-0.46148,-0.15543,-0.35957,-1.1503,-1.3543,0.91581,1.0943,-0.84429,2.2932,0.55861,-0.35957,-1.3543,-0.79321,-0.58906,-0.84424,0.38005,1.1198,0.22709,-0.10443,0.3803,-0.20648,0.4057,0.25255,0.04861,0.022913,-0.079124,-1.0993,0.73736,-0.35942,-0.4615,-0.23201,-0.10455,-0.028152,0.073965,0.71165,2.7523,-0.71663,-0.81866,-0.61457,-1.0227,-0.28303,0.55872,-1.1758,1.3494,2.0125,-1.1248,-1.3798,-0.66553,0.2781,-1.5584,0.66072,0.96679,0.99218,0.45649,0.38001,-0.25751,-0.86954,-1.3287,-0.23193,0.20166,2.0381,1.5024,-0.46169,-0.69118,-0.38519,-0.64018,-1.6857,-0.25733,0.58416,1.1961,0.91556,-0.61467,0.27821,1.324,-0.46163,-0.89519,-0.61462,0.6608,0.45677,-0.74208,-0.6401,-0.28304,-0.079033,0.43106,0.55856,0.50754,-0.38511,-0.41058,0.71181,-0.027956,-0.28297,0.60978,-0.13002,1.6299,-0.79328,0.17619,-1.0992,-1.0992,-2.2471,2.0637,0.78828,-0.58925,1.0687,-0.5637,0.30359,-0.15554,-0.56354,0.38021,0.6862,-0.002436,-0.51257,-0.58909,-0.33408,-1.0738,1.681,2.3952,0.63504,-0.76766,-2.0429,-0.84409,1.069,0.073989,0.3289,1.4513,0.022864,-0.33396,-0.69106,-0.89507,-1.7114,0.099693,1.2729,1.8341,-0.15551,-0.74226,0.12494,-0.053544,-0.3086,0.40556,1.6555,0.1761,-2.9358,0.86485,2.1912,-1.89,-0.79306,0.71183,-0.81862,-0.48723,0.099534,0.07402,0.25262,-0.12996,0.30358,0.55866,-0.13007,1.579,0.023041,0.12508,-0.181,-0.8186,-0.69111,-1.3032,0.099534,-0.46163,0.48219,1.7829,0.53298,-0.10459,0.40567,-0.38495,-0.58898,-0.89509,-0.74214,-0.18105,-0.74215,-0.76761,0.38025,1.2729,1.0175,1.0175,1.2728,-0.30839,-1.5583,-1.0227,2.0893,-0.6146,-0.79326,-0.97179,1.4005,0.20165,0.25264,0.022986,-0.92072,-0.79326,0.27806,-0.1555,-0.18103,0.25256,0.15048,0.35462,2.2166,0.60971,-0.20652,-0.10449,-0.48706,-0.84411,-0.89507,-0.94612,-0.053446,0.22703,0.63528,-0.002467,0.58409,0.09943,0.30348,-0.2065,-0.002332,-0.63996,-0.35953,-1.2779,-0.028011,2.6248,3.0584,-0.64019,-0.51257,-1.992,-1.023,-0.079186,1.2219,0.40581,-0.20646,-1.6859,-0.027938,-0.30857,-0.58915,1.0688,0.27817,0.2527,0.55881,4.1808,-0.48722,-1.4055,1.3238,-1.4819,-1.4053,-1.3543,-0.43607,-0.20645,-0.053397,0.3802,0.15065,0.86473,0.76262,1.0686,0.63518,-0.23216,0.023103,0.55881,-0.41046,-0.66562,-0.66559,-1.2266,-1.0736,-0.18105,-0.053592,0.99222,0.30358,-0.33413,0.50749,-2.7063,2.4208,5.3287,-2.4768,1.0689,-0.25749,-2.8593,-1.0228,0.22721,-0.43596,0.20166,-0.15557,0.55853,0.58417,0.43106,0.50759,-0.0535,0.38019,0.22721,-0.64003,-0.23199,-0.028018,0.50771,-0.48717,1.63,0.96685,-1.0992,-1.2523,-1.4054,-0.28306,0.32912,-0.002467,-0.71652,0.9921,1.2472,0.839,0.73725,-0.61454,-0.51249,-1.2012,-0.81855,0.32933,-0.5891,1.4769,0.99218,0.53312,-1.2778,1.1199,-0.12996,-0.64018,-2.3491,-0.23203,1.5024,0.68615,-0.43615,0.58427,-0.002394,-1.7624,1.8087,0.9924,-0.94632,-0.74215,0.38008,-0.10459,0.176,0.40547,-0.25768,-0.79316,1.7576,0.43129,-0.35948,-0.76754,-1.4053,-0.58904,-0.20642,-0.12999,-1.8391,0.32895,3.9001,2.7267,1.6044,-0.56369,-2.0431,-1.6604,-0.89513,-1.6349,-0.89514,0.048678,-1.1247,0.63523,2.9565,0.60976,-2.1706,0.35461,4.4358,-0.079118,-0.94637,-0.99727,-1.1502,-0.56366,-0.15557,0.35459,0.73728,0.7883,-1.2523,-1.4308,0.63535,1.6812,-0.71665,-0.028114,0.43104,-0.15562,-0.23214,-0.028188,0.86488,-0.18081,-0.078886,-1.9155,0.17606,2.6503,1.1708,-0.64023,-0.69111,-1.0993,-1.0993,0.94131,1.2474,-1.3033,1.0944,-0.25745,-0.15556,-0.92079,0.83923,0.6862,-0.99713,-0.81862,-0.33407,0.30355,0.25257,0.5842,-0.23202,0.048604,0.50764,0.12505,0.43117,0.22705,-0.79326,0.35461,0.12526,-0.56338,-3.1653,1.7321,2.3186,0.32895,-1.8136,-1.2269,0.20157,4.2063,-0.10453,-1.0738,-0.48705,-0.94622,-0.84417,-1.9665,0.78824,2.1912,0.32907,0.40569,-0.56359,0.074026,0.20164,-0.46163,0.55874,-0.5637,-0.25748,-0.97163,1.3749,0.94124,-1.2013,-0.1555,1.732,0.22718,-1.2268,-1.1503,-0.079137,-0.4106,-0.58913,0.15059,0.94136,0.20174,-0.7676,-1.5074,1.2985,3.0329,0.78811,-0.69124,-1.2014,-0.69122,1.2219,0.94133,-0.89517,-1.4564,-0.61461,0.074069,-0.8697,0.48221,0.66073,0.81378,-0.35964,-0.41059,0.4822,1.0178,0.53321,-0.38508,-0.79321,-0.41057,-0.46161,0.43116,1.1198,-0.81871,0.023072,-0.30841,-0.41049,0.09954,0.278,0.71159,0.25255,-0.76777,1.5025,0.12517,-0.33401,-0.46154,-0.84414,-1.1758,0.17601,0.55873,3.0839,-0.002485,-0.94622,-1.7626,-0.8187,1.5791,1.8086,-0.5892,-0.69124,-0.97177,-0.56365,-0.76764,-0.33399,-0.38495,-0.28298,0.4567
-1.0992,-0.38506,0.50772,0.35465,-0.86961,-0.18091,0.35464,-0.51265,-0.48724,0.60959,0.8647,0.38025,-0.92056,-0.002332,0.17605,0.40552,0.12494,-0.35952,-0.079045,-0.15549,-0.027938,-0.12999,-0.74209,0.099644,0.81375,0.20157,-0.15556,0.55864,0.58424,-0.15553,-0.46167,-0.48713,-0.28292,0.89037,-0.181,-0.84419,-0.61465,-0.079057,0.22708,0.32912,0.3036,-0.28309,-0.30853,0.53325,0.86481,0.81376,0.94131,-0.71671,-1.2013,-1.4053,-0.13007,0.8901,0.99217,-0.30836,-0.69103,-0.53805,-0.15551,-0.38506,-0.15545,0.22715,0.96679,0.40555,1.1196,0.63504,0.55856,-0.53811,-0.81846,-0.97145,-1.1246,-0.79316,0.4566,0.76274,0.20152,0.40554,0.12512,-0.25756,-0.74219,-0.053506,1.4515,1.1198,-0.51267,-0.10453,-0.94617,-0.76761,0.074149,0.81389,0.60974,-0.027974,0.022931,-0.56362,-0.61465,-0.51259,0.25259,-0.86972,-0.48715,1.426,1.63,0.074026,-0.33409,-0.23206,-0.30856,-0.079051,0.38016,-0.41055,-0.38515,-0.74211,-0.41054,0.50774,0.45666,0.25254,-1.4564,0.66068,2.1401,2.4972,0.71179,-1.3289,-1.8389,-1.5074,-0.71666,-0.43611,-0.283,-0.002479,0.32918,0.25262,1.324,0.78824,-0.028158,0.22705,0.60973,-0.12998,-0.46159,-1.0737,-0.436,0.66072,0.6096,0.55867,-0.61457,-0.53813,-0.64018,-0.66562,-0.48701,0.53314,1.1198,0.68629,0.30366,-0.13005,0.76271,-0.079002,-1.0482,-1.1502,-1.2522,-0.33394,-0.18099,-0.53797,0.73718,0.71145,1.5022,1.9361,-0.002423,-0.6656,-0.7931,-0.33404,0.074093,-0.76764,-0.15545,0.22703,0.43101,-0.079008,-0.20648,-1.1503,0.76277,1.7832,-0.002577,-1.0482,-0.027846,0.63529,-0.1556,-0.79321,-1.3544,-1.0993,1.0689,1.0944,-0.3597,0.91585,0.20162,-0.35976,-0.13008,0.40565,-0.8951,-0.84412,-0.4361,0.58426,-0.18099,-0.053397,0.048592,-0.002436,0.30351,0.22704,0.25254,-1.9155,-0.51269,3.1349,4.2061,0.66081,-1.2521,-2.3235,-1.9155,-1.6349,-1.0482,-1.5584,0.38011,1.6045,1.6045,1.3749,0.15054,0.099626,-0.33426,0.45664,0.94119,-0.23207,-0.56369,-0.28308,-0.05339,-0.58893,-0.94601,-0.84412,0.073995,-0.30854,1.0688,1.1452,0.30337,0.27815,-0.078966,-0.56354,-0.43608,-0.53807,0.1506,-0.13002,-0.053495,0.81384,1.0432,-0.1555,1.0434,-0.46148,-0.33411,-0.51265,-0.69116,0.12496,0.099345,-0.43617,-1.0226,0.3548,0.3037,0.48221,1.2984,0.074069,-0.41058,-0.53812,-0.38515,-0.027993,-0.92089,0.17631,1.5536,-0.078886,-0.10459,-0.18114,0.50755,-1.0737,-0.28305,-0.23186,-0.76773,1.6045,1.783,-0.76758,-0.38505,-0.81866,-0.3341,-0.69116,-0.33401,0.68608,1.5534,1.4003,0.099552,-0.94611,-0.79302,-1.0737,-0.35953,0.32907,-0.13009,0.76275,1.2473,-0.18104,-0.053488,0.048659,0.074081,-1.0737,-0.58927,0.27797,1.0433,-0.23204,-0.86964,-0.33394,-0.74212,0.048585,0.27825,1.2982,1.2727,-0.35968,-0.84414,-0.81862,-0.589,-0.53808,0.20158,-0.12986,1.1197,1.1962,0.073868,-0.538,0.1251,-0.25749,-0.48697,-0.30854,-0.30863,0.7117,0.89037,-0.027962,-1.1759,-0.33406,0.43123,-1.0228,-0.53809,1.2219,0.73718,-0.48711,-0.81868,0.55869,0.53314,-0.18097,-0.74215,-0.43609,-0.25751,-0.30852,0.86477,-0.20651,0.81362,1.4768,-0.18099,-0.33389,-0.28299,-0.002418,-0.2575,-0.69115,-0.02792,0.58427,0.40557,0.38008,-0.18114,-0.64019,0.48215,0.78828,-0.053397,-0.53803,-1.1247,-0.33402,0.48222,0.66067,0.15049,-0.53819,0.27812,0.68633,-0.46158,0.12499,0.48196,-0.20646,-0.63996,-0.46148,0.023035,0.78813,0.63504,0.04858,0.15062,-0.81857,-0.81858,-1.1246,-0.53812,1.3238,0.45649,0.68613,0.40558,0.22699,-0.28304,-0.71662,-0.46158,0.71189,1.069,0.43117,-0.4107,-0.38526,-0.25755,-0.10445,-0.48703,0.38018,0.048629,-0.078972,0.27801,0.22677,0.35464,0.60985,-0.18095,-0.48705,-0.86962,-0.28293,-0.23199,-0.13002,0.50768,1.1962,-0.13001,0.60967,-0.41062,0.15043,0.048525,-0.41049,-0.38494,-0.18097,-1.2522,-0.002394,1.7319,0.35456,-0.43616,-0.56363,-0.027944,0.32915,0.48226,-0.48703,0.12512,-0.56366,-0.25757,-0.53819,0.86466,0.40569,-0.078947,-0.64015,-0.05347,0.58432,0.86481,-0.28299,-0.33408,-0.28318,-0.4361,0.40561,-0.053464,-0.41049,-0.10446,0.43116,0.50771,0.023059,0.53307,0.17595,0.07402,-0.46167,-0.33401,0.22713,-0.99712,-0.25735,-0.33399,-0.46162,0.50759,1.2728,0.073984,0.5332,1.3493,-1.0738,-0.58913,-0.69106,0.68627,0.074062,-1.788,0.35456,2.4972,0.94133,-0.56366,-1.1247,-1.3286,-0.28305,0.073959,0.30345,0.074062,0.35464,0.50767,0.45661,0.25267,-0.8696,-0.10452,0.30372,-0.23202,0.58417,0.38006,0.048567,-1.0482,-0.13009,1.0177,0.099491,-0.61458,-0.97161,-0.71663,-0.078923,0.048518,1.2729,0.66072,0.48211,0.53294,-0.25758,-0.64011,-0.30844,-1.6349,0.15063,2.0637,0.27809,-0.38525,0.073868,0.53308,0.15065,-0.94609,-0.84405,-0.38499,-0.13001,0.20157,-0.38513,0.68622,1.4512,0.40564,0.60974,0.023255,-1.6349,-0.66558,-0.74206,-0.23208,0.45648,1.7827,0.45666,-0.15544,-0.43598,-1.2012,-0.71657,-0.66555,-0.81858,0.99226,1.3239,1.0686,0.30353,0.048598,-0.10449,-0.30849,-0.25748,-0.97166,0.60962,-0.053476,0.71157,0.94122,-0.58914,-0.48705,-0.71648,-0.28294,-2.451,0.25271,1.885,2.1908,0.35451,-1.5585,-0.51255,-0.28293,-0.18094,-0.38499,-0.76771,0.17592,0.6607,1.0944,-0.053421,0.074013,0.35458,-0.51267,0.048678,1.0434,0.53305,0.073953,-0.99728,-0.28292,-1.1502,-0.64005,-0.12991,0.81376,-0.10461,0.20168,0.48221,0.68611,1.4004,-0.13013,-0.35962,-0.23209,-0.46162,-0.61452,-0.71658,-0.46154,0.099583,0.45667,-0.18097,0.20156,0.40569,-0.38517,0.27808,2.7012,0.099626,-0.078996,-0.48706,-0.84421,-1.3033,-1.2523,1.375,1.2218,-0.99723,-0.8187,-0.002423,-0.61473,1.2728,2.2166,0.099528,-0.46159,-0.74214,-1.0482,-0.66566,-0.028036,0.25258,0.12513,0.27817,0.22711,-0.30849,0.30368,-0.71679,-0.92071,1.5535,2.0635,0.43099,-0.43617,-0.89515,-0.28297,-1.1247,-0.76769,-0.51257,-0.25759,-0.35949,-0.35956,1.1198,0.81381,0.50771,0.63511,0.58412,-1.1248,0.38019,0.73729,-0.76771,-0.51254,0.40564,0.40549,-0.20656,0.27815,-0.97163,-0.76761,-0.56363,-0.46161,-0.28314,1.1198,0.7373,0.50768,1.222,-0.02798,-1.4564,-0.97165,0.66072,-0.58914,0.35445,0.20148,0.43099,0.15068,-0.18086,-0.76755,-0.64011,-0.28306,0.20153,1.5024,0.50765,0.15054,-1.4564,-0.43604,0.048629,-0.35954,-0.18102,-0.41063,0.25241,0.22706,-0.33406,-0.23194,1.6044,-0.30841,-0.30848,-0.9972,-0.078953,0.66073,-0.15553,0.48208,-0.8442,-0.3852,1.1964,1.3239,0.099552,-0.1045,-0.76766,-1.0737,-1.0737,-0.48713,0.12511,0.50766,0.78823,0.43106,-0.027876,-0.46154,0.50763,1.2473,-0.74222,-0.53811,0.38011,-0.69107,-1.5328,1.4771,0.83919,-0.6913,-0.028054,0.9158,-1.4564,-0.0535,0.78832,-0.30849,-0.92064,-0.3085,0.27801,0.86469,0.12513,-0.12999,0.09951,0.50766,-0.99723,0.22716,1.4261,0.22709,0.17594,0.35451,-0.89516,-0.71664,-1.0482,0.20166,-0.35949,0.81376,-0.41058,-0.079045,0.60963,0.66062,0.27818,0.86475,-0.84411,-0.64012,-0.69114,-0.43609,-0.56355,0.30366,0.55869,0.60959,2.089,0.12496,-0.46155,-0.84425,-0.81867,-1.2522,-0.48693,-0.35954,-1.4308,0.99233,2.7778,2.3184,-0.1301,-0.92073,-0.92064,-0.64004,-0.86966,0.023047,0.023121,-1.2013,1.4769,1.8085,0.32888,0.22694,-0.33408,-0.66559,-0.38499,-0.74208,-1.1247,-0.027815,0.6098,0.50759,0.8136,0.66067,0.86459,-0.43603,-1.0992,-0.69102,-0.283,-0.66562,-1.6859,1.8851,1.936,0.96674,-0.30863,-0.69119,-0.74218,-0.5381,-1.2522,-0.69105,1.324,0.96691,-0.079021,0.40557,-0.079179,0.48208,0.15064,0.48211,-0.74215,-0.64,0.12513,0.023029,-0.078977,-0.48712,-0.89527,0.20166,2.0127,0.89009,-0.61457,-1.3032,-0.53808,0.38011,-0.33411,-0.002497,0.63517,-2.1196,1.4005,3.5175,1.2728,-1.4563,-1.3288,-0.89518,-1.2523,-1.0227,0.20153,1.9616,0.048531,-0.33393,-0.283,-0.23196,-0.61459,0.12504,0.2781,0.30353,0.76273,-0.33413,-0.6913,0.048536,1.783,0.30364,-0.53804,-0.71656,-0.81865,-0.71665,-0.18101,-0.30856,0.20156,0.55869,0.17609,-0.2575,0.12501,0.58409,0.48211,0.20161,-0.20657,-0.81866,0.27822,-0.18096,-0.028042,-0.20653,-0.56348,0.048536,0.45661,-0.13004,-0.35959,0.12511,0.63523,0.17607,0.099564,-0.28303,-0.41061,0.63524,-0.18097,-0.41066,0.96668,1.3494,-1.0227,-0.81859,-0.30847,-0.38514,-0.89527,0.60963,2.3951,-0.71668,-0.56358,-0.69105,-0.027907,0.20167,-0.46154,-0.30855,0.50757,0.58409,0.20155,1.477,-0.028047,-0.18095,-0.283,-0.56358,-0.46152,-0.10446,-0.10446,0.048482,-0.10447,0.30358,0.048536,0.43115,-0.69119,0.329,0.86481,-0.002467,-0.385,-0.48719,0.074185,0.50782,-0.89522,-0.86972,-1.3543,-0.28306,0.78819,1.4258,1.0943,-0.3085,-0.81864,-0.66556,0.30354,0.55869,0.048518,-0.25748,-0.4615,-0.23196,-0.10452,0.40547,0.45661,0.20155,-0.51258,0.58423,0.099657,-1.1248,0.94129,0.27809,0.27809,0.43105,-0.66564,-1.3288,-0.48704,-0.4615,-0.69115,0.86481,0.5332,0.27797,0.32909,-0.002485,-0.5126,-0.078977,1.2474,-0.33408,-0.35949,-0.25748,-0.079008,0.89025,0.35452,-0.334,-0.20647,-0.43602,-0.30857,-0.41061,0.53306,0.78812,0.38016,-0.12996,-0.58901,-0.46159,0.17605,1.1709,0.94135,-0.69112,-1.2523,-0.86972,0.6862,1.0687,-0.69111,-0.94621,-0.46162,0.53325,-0.10449,0.27798,0.40553,0.38008,-0.10444,-0.027871,0.02317,-0.33394,-0.053446,-0.28305,-0.94624,-0.028023,1.0687,0.45664,-0.3341,-0.23202,-0.66565,-0.00243,0.17607,0.17609,0.9668,0.68622,-0.053537,-0.76764,-0.84407,-0.56353,0.099552,0.50759,-0.58924,0.35456,1.5535,-0.25753,-0.38503,0.45677,0.63528,-0.079081,-0.86981,-0.43618,-1.0227,0.27817,0.60975,0.50772,-0.1555,-0.99727,-0.71671,1.0943,1.0433,-0.74223,0.12517,0.35471,-0.53822,0.32916,-0.38495,-1.4818,-0.15551,0.50766,0.15056,0.15053,0.20155,0.94133,0.048438,0.12501,-0.028066,-0.10441,-0.25743,-0.58902,-0.71659,-0.15554,0.66075,0.30359,0.43103,0.25255,-0.51257,-1.5583,-0.46148,0.71184,0.048604,0.63515,0.91573,0.7627,-0.69118,-0.74219,-0.66571,-0.69115,-0.99725,0.048549,0.91584,1.1198,0.40568,-0.027962,-0.078959,-0.053495,0.0485,0.40564,0.20159,-0.18096,-0.43593,-0.86966,-0.18101,0.22702,0.40552,-0.20655,-0.028005,-0.20658,0.27814,0.27831,-0.48702,-0.38507,0.073922,1.4769,-0.10449,-1.9666,0.38016,1.477,-0.002381,-0.94613,-0.53812,-0.84417,-1.4819,-0.13012,2.5481,1.4769,-0.33406,-0.35951,-0.53804,-0.74207,0.22723,0.38011,-0.13004,0.55867,0.22697,-1.1758,0.20162,0.89036,-0.12993,-1.0991,-0.46164,0.66058,1.0432,-0.20652,-0.48707,0.023096,-0.56354,-0.30846,-1.7879,0.30365,4.1807,0.78807,-0.28313,-1.2523,-0.97177,-0.86971,-0.58913,-0.20645,0.35459,0.17608,0.1762,0.048634,0.12504,-0.51262,0.27813,2.1912,0.83925,-0.079191,-0.9463,-1.5584,-0.7676,0.30376,1.1964,-0.61462,-0.81873,-0.53814,-0.079021,-0.12999,-0.46164,-0.10451,0.55861,1.2219,1.7576,-0.12997,-0.43623,-0.30858,-0.002394,-0.3595,-0.84413,-1.0992,-0.58912,0.89024,0.76263,-0.30844,1.0433,0.27802,0.37999,-0.28298,-0.56361,-1.3033,0.30364,0.96685,0.38015,-0.078953,-0.51255,-0.71665,-0.30855,0.45657,0.074008,0.83934,0.023108,-0.15552,0.17595,-0.48714,-0.25753,-1.0483,-0.43609,2.2679,-0.027864,-0.38508,0.22711,-0.43616,-0.28322,-1.0738,0.45676,1.7065,-0.46162,-0.64015,0.20158,0.9923,-0.3851,-0.81867,-0.46162,0.71174,0.25262,-0.84406,0.78828,-0.15558,-0.079179,-0.66556,0.76288,0.074111,-1.1248,0.0741,0.86483,0.2271,0.73718,-0.99734,-0.69111,-0.10449,-0.28309,-0.51254,-0.53812,0.099564,0.94117,0.32902,0.20162,1.4006,-0.23196,0.02309,-0.33401,-1.8899,-0.94632,0.30363,0.38009,1.6299,-0.15559,-0.002516,0.32921,-0.71657,-0.76758,-0.25754,-0.38509,0.15054,0.27821,0.37995,1.1197,0.43103,-0.53806,-0.81852,-0.20634,-0.35949,-1.4053,0.9923,1.8593,0.99212,1.5534,-0.078941,-1.6604,-1.4563,-0.99715,-1.7878,-0.51254,-0.10458,2.548,2.4207,0.38003,-0.84412,-0.76764,0.15068,-1.1758,-1.2778,0.32918,0.63514,0.71166,0.32904,-0.0535,-1.0737,-0.51255,2.1147,0.53318,-0.078977,0.25263,-0.99732,-0.61472,0.89015,-0.56353,-0.94614,-0.81854,-0.436,0.35466,0.09954,0.58403,0.99223,0.55858,-0.053427,0.27816,0.71175,0.22698,-0.89516,-1.2012,-0.97165,-1.4819,0.40569,1.477,-1.0228,-0.23213,3.5686,0.60954,-0.35971,-1.0227,0.099681,-2.2216,-0.89515,2.0892,-0.12994,-0.53808,0.099534,0.38005,-0.10463,-0.20656,-0.10444,-0.48711,0.48216,0.99229,0.048634,-0.12995,1.1454,-0.28298,-0.66564,-0.41059,-0.13005,-0.30852,-1.2013,-1.2523,2.1656,3.0327,0.40553,0.35475,-1.5327,-1.7879,-1.3543,-1.2267,-0.97179,1.579,2.7523,1.2218,-0.1301,-0.027962,-0.4871,-1.2011,0.20162,-0.1045,0.3035,0.40552,-0.41056,-0.078843,1.2475,0.2526,-0.33402,-1.1758,0.68621,0.86466,-0.48727,-1.1503,0.53333,0.15071,0.43124,-0.30854,-0.53814,-0.053525,1.6809,0.63517,-1.2013,-2.0175,-0.027944,0.83928,0.66083,1.9872,-0.41057,-0.9718,-0.58912,-0.56372,-0.9207,0.048536,0.50765,-0.028029,0.55877,0.55871,0.023133,0.048604,0.53321,-0.18102,-1.2268,-0.15547,2.0125,0.73691,-0.58914,-0.078886,-1.0736,-1.5838,-0.079045,1.3239,0.099595,-0.079057,0.17606,-1.8646,0.35467,3.1861,-0.97169,-0.35944,1.1709,0.27811,-0.69125,-1.1248,0.76276,-0.28306,-0.51262,-1.9155,0.45669,2.8544,1.4769,-0.61477,-0.71673,-0.6912,-0.74217,-0.078935,-0.053255,-0.12988,-0.28309,0.71159,1.4514,-0.38516,-0.053495,0.43117,-0.81858,-1.2523,-1.4307,1.63,0.73718,-0.35984,0.25265,0.43118,-0.58909,0.15062,-0.56362,-0.56365,-1.2779,-1.7879,1.8596,4.2064,2.4717,0.15041,-1.023,-1.7881,-2.1705,-1.8643,-1.2776,-0.71647,-0.053421,-0.58921,2.9309,3.0073,-0.58925,1.4005,0.83936,-1.6349,-0.99714,-0.053421,-1.788,-0.66568,1.1454,2.1145,0.9922,-0.079008,-1.0227,-0.9207,-0.7676,-0.48702,-0.35951,-1.1247,-1.0228,3.0073,3.5939,1.1962,-0.53806,-1.1757,-1.1757,-2.4767,0.7373,0.83934,-1.0483,0.35454,0.58416,-0.35964,1.7064,0.91576,-1.9154,-0.86963,0.50777,0.25259,0.76278,-0.18109,0.022925,0.58412,-0.48714,-0.74215,-0.92054,-0.027901,1.5279,0.9923,-1.5329,-0.28298,0.96677,0.25248,0.48216,0.20154,-0.61457,-1.6604,-0.18094,0.58424,0.68624,-0.18101,0.048415,1.2981,-1.4055,-0.18085,0.94144,-2.3745,0.89038,0.2017,-0.71675,-0.76783,0.68617,1.4514,-0.28303,-0.10454,-0.81864,-1.2012,0.50771,1.3239,0.25244,0.66064,-0.079026,-0.35953,-0.15543,-1.2522,-0.69104,-0.10446,0.4821,0.71155,-0.30856,0.0485,0.58429,-0.97167,0.2271,2.4973,0.91572,-0.74225,-0.33402,-0.053384,-0.99725,-1.8645,0.048543,2.1912,0.27806,-0.7676,-0.38499,-0.18105,0.43116,0.048598,-0.58927,-0.35966,1.1199,0.78829,0.15054,0.073959,-0.10446,-1.2267,-1.0226,0.63534,-0.1299,-0.43613,1.0943,0.43103,-1.533,0.83915,0.99227,-0.12993,-0.53803,-0.89516,-0.66561,-0.35962,0.17599,0.38013,1.7065,0.50767,-0.28292,0.32927,-0.18097,-0.6656,-0.43614,0.073904,-0.10468,-0.079045,1.477,0.66067,-0.12999,0.0741,-1.5583,-0.30853,0.76281,-0.64013,-0.53821,-0.81869,0.25258,1.9362,0.53317,-1.3544,0.83919,0.12521,-0.86967,-0.56362,-0.18104,0.22705,-0.10458,0.22711,0.60963,0.83919,-0.10453,-1.0226,1.0945,0.40576,-0.74216,-0.28299,-0.3341,-0.13013,0.91571,-0.69112,-1.4053,-0.61458,0.35472,-0.99735,2.8289,1.681,0.099564,-0.48716,-0.5891,-0.84422,-0.92072,-1.0482,-1.737,1.4004,1.5281,0.048469,0.76267,0.96676,-0.64006,-0.41057,-0.53806,-0.94614,-0.4106,1.4259,-0.25766,0.8138,0.66082,-1.3799,-0.35957,0.50765,-1.5838,-1.3288,-0.20657,1.6808,2.0381,-0.97183,1.426,0.53335,-1.4562,-0.38494,-1.839,-0.74214,1.0179,1.2983,-0.43619,-0.18111,-0.053573,0.0741,-1.0228,0.86481,2.3953,-0.97177,-0.99737,2.1911,-0.46159,-1.0993,0.09965,-0.20652,-0.81866,0.048458,-0.18089,-0.79304,-0.48706,0.27802,-0.10453,0.17596,1.0433,0.55876,0.023059,-1.0739,0.83928,1.6557,-2.9358,0.40561,3.6196,-1.5584,-0.20658,0.38016,-1.1758,-0.38505,-0.81872,-0.4872,-1.0483,-0.027907,0.91584,0.35462,2.7524,2.1147,-0.53816,-1.0738,-1.2013,-1.1502,-0.64012,-0.33406,0.86469,0.099546,0.17607,0.58422,-0.53828,0.55879,1.1965,-0.589,-0.94619,-0.79334,0.40552,-0.46164,0.074008,1.1964,-1.0994,2.5994,-0.51249,-0.51257,-1.686,-0.58922,0.63501,1.1708,0.99243,-0.92062,-0.76765,-0.20648,-0.38503,-0.35955,0.38008,1.63,-0.3851,-0.35951,-0.74214,-1.1758,0.50774,1.426,0.15054,0.66048,-0.92064,-0.9462,0.68627,0.7883,-0.28304,-1.2778,2.1656,0.4822,-0.84424,-1.1247,-1.5073,-0.79319,1.1709,1.0688,-0.15567,-0.51276,1.4259,1.8852,-1.0992,-0.86958,-0.25743,0.66067,0.20155,-0.4106,-0.4106,-0.3341,-0.43611,-0.69124,-0.28297,1.8852,1.2984,-0.46174,-0.25768,1.6301,-0.053446,-1.1247,-0.84415,-1.6349,-0.97166,0.55866,1.1963,1.0943,0.22701,-0.028047,-0.20648,-0.15543,-0.46151,-1.1502,-0.027876,1.9105,0.12507,0.17597,-0.23213,0.048512,-0.69114,-0.74218,0.12514,-0.53815,1.1454,0.45666,0.12507,-0.18104,0.12498,-0.84422,-1.2267,-1.2523,0.45668,2.0126,0.81376,-0.9972,-1.3033,1.0433,2.5736,-0.25771,-0.9973,-1.3289,-0.84412,-0.61454,-0.56353,-0.53807,0.66076,1.5279,0.73714,0.38005,1.0434,0.91585,-0.61479,-0.94616,1.4516,-0.99719,-1.2523,-0.94626,0.60969,-0.64018,-0.30864,0.38013,-0.1301,1.1709,0.27819,-0.35951,1.069,0.048543,0.43102,-0.84426,-2.4257,1.1964,3.2116,0.048518,-0.94633,-0.3341,-1.2777,-1.5584,-0.56362,0.94129,0.22704,0.53307,0.40569,0.27813,0.7626,0.15059,-1.8135,-0.56358,2.8289,1.0689,-0.69102,-1.1248,-1.0483,-1.3544,0.96684,1.2984,0.048396,-0.30849,0.30364,0.25262,-0.18097,-0.61463,-0.6147,-0.28317,0.89036,0.99246,-0.334,-1.1248,-0.23209,1.4513,-0.99726,0.73723,1.528,-0.89521,-0.56362,-1.3544,1.7321,0.45663,-0.7166,0.58422,-0.66569,0.48222,-0.053439,-0.84426,-0.46167,-1.0737,0.1761,1.6044,0.50753,-1.0992,-0.002307,0.023188,-0.66566,0.023103,0.12509,0.17602,-0.18112,0.073965,-0.002436,2.0381,0.45667,-0.053678,-1.8135,-1.0226,-0.002405,0.20166,-0.86972,-0.5636,1.2983,0.99229,-0.13009,0.17617,0.09965,0.22705,-0.18098,-0.1555,-0.18103,-0.002497,0.023023,-0.20653,0.45668,-0.002332,0.12504,0.20152,0.30349,-0.74203,-1.0992,-0.51257,-1.1759,0.76263,4.5888,1.6299,0.71174,-1.9665,-2.6551,-2.2215,1.2731,-0.51257,-0.43609,0.9157,0.20142,-0.38511,0.63526,0.30361,0.074002,0.099583,-0.25754,0.68626,0.22718,0.048451,0.27816,0.71176,-0.66562,-1.6859,0.71181,1.528,-1.4819,0.53321,-0.3852,-0.79322,1.1454,0.022876,-0.15558,0.60983,-0.41046,-0.56353,-1.0481,-2.6807,1.5279,3.9511,0.584,0.25243,-1.0227,-0.33398,-0.46151,-0.84415,-0.002394,-0.74211,1.4514,1.1452,2.1655,-0.20658,-2.1705,-0.56344,-0.51252,-2.7317,-0.79308,-0.89519,-0.10458,4.4868,2.7012,0.73707,-0.20651,-0.89522,-2.3236,-2.8336,-1.7879,2.8288,1.8082,0.83914,-0.10439,-0.71654,-0.84408,-1.2522,-1.0482,-0.12996,1.2475,0.76266,1.1962,1.5532,0.20158,-0.69113,-0.74206,-0.92063,-0.97172,-0.94624,0.15062,0.48215,1.1709,0.38014,1.0434,1.9361,-0.46171,-1.4819,-1.3797,-0.86967,-0.7166,-1.2524,1.426,2.0381,0.32912,0.50755,0.023029,-0.43601,-1.2012,-0.89518,-0.84412,2.3442,2.2676,0.12488,-0.74228,-1.2013,-0.89519,-0.61458,-1.9155,0.71192,2.2678,-0.46165,1.2217,1.63,0.40547,-0.92068,-1.2268,-0.79309,-0.35942,-1.0992,-0.181,0.73709,3.3643,0.8903,-0.46157,-0.76772,-0.99724,-1.2778,-0.41058,-0.25744,1.7576,-0.43607,0.40561,-0.97183,0.55868,1.5535,1.5535,-0.25765,-1.1247,-1.2012,-1.0737,-0.28308,0.5841,-0.028011,0.53322,0.9924,-0.58913,-1.4818,-0.69121,2.2677,1.9615,-0.18109,-0.61479,0.63517,0.099588,-1.4307,0.45683,-1.4308,-1.7114,0.20169,0.73724,0.15038,0.73706,0.12501,-1.6095,-2.8083,4.8185,3.5433,-0.76772,-0.4617,-0.99726,-1.3544,-1.1249,-0.76769,-1.941,1.6046,2.9819,0.55861,-0.3851,-0.84409,-0.8186,-0.53809,0.43117,-0.48716,1.6555,2.2167,-0.20667,-0.053653,-0.81866,-0.56362,-0.61452,-0.86972,0.30359,0.60979,0.17613,0.38008,0.27801,-0.9462,0.6098,0.66086,-0.48708,-0.002601,-3.8543,0.3547,5.2267,0.91584,0.86473,-0.28311,-1.278,-2.0685,-1.9919,-1.5073,-0.18095,1.6555,1.6809,-1.0994,2.3442,2.2677,-0.56356,-1.4308,0.099588,-0.33409,-0.4616,-0.66577,0.9157,0.71161,-0.58903,-0.35943,0.81389,-1.0993,0.2526,1.0688,-0.28311,-0.6147,-0.33416,-0.25756,-0.53809,-1.533,0.89037,2.5738,0.35465,-0.20654,-0.18119,-0.58908,-1.6604,-0.81867,1.069,0.60974,0.68625,-0.1046,-0.15551,-0.30854,-0.3851,-0.053464,-0.23202,-0.23207,-0.20658,3.6196,-0.38513,-1.1248,0.83931,0.91571,-1.2523,-1.1248,-0.56353,-0.76763,-0.61465,0.17609,0.1251,0.2526,0.50768,0.45656,0.022961,-1.2778,2.6503,2.1657,-0.48708,-0.41058,-1.1247,-0.69118,-0.2575,-2.043,0.76272,1.3239,0.86478,-0.48713,0.55869,-1.1249,-0.71653,0.66085,-0.86967,0.63515,0.35461,-0.35954,0.71175,-0.89525,-0.28307,0.58426,0.15049,0.53302,-0.28305,-1.0228,-0.20646,1.2731,0.53326,-0.10459,0.074038,0.074044,-0.97171,-0.89519,0.45669,-0.86977,0.0485,1.4769,1.732,-0.20653,-0.7676,-1.0737,-0.61463,-0.84424,0.099577,0.40567,1.2728,1.6045,-0.10464,-2.2471,2.3443,0.25265,-1.0992,-1.0736,-1.2268,0.43111,-0.41061,0.91573,1.0943,0.76266,-0.71667,-0.71665,-0.69112,-0.48705,1.273,2.4463,0.86474,-0.6912,-1.1503,-0.76772,-0.25759,-0.38505,-0.94618,0.32913,0.38016,0.27806,0.76265,0.023035,0.96691,-0.002374,-1.5074,0.2782,1.273,-0.38516,0.12499,-0.69121,-1.4054,0.66064,0.30351,1.4769,0.32913,-1.4053,-1.0991,-1.3797,-0.74208,0.83928,3.237,0.53304,0.048366,-0.41061,-0.66564,-1.3798,0.12515,0.3802,0.023065,-0.15552,-0.25756,-0.71666,0.32905,1.0943,-0.13005,-0.20647,1.0179,0.074038,0.25255,-0.078928,-1.4309,-0.4361,0.30368,-0.5382,0.099394,1.8852,-0.6656,-0.51255,0.45677,-1.686,-1.3799,0.86477,2.4462,0.2781,-1.4055,1.7831,0.78826,-0.94623,-1.2523,-0.23204,0.66058,-0.84429,-0.38495,-0.027858,-0.33396,1.375,0.40561,0.50765,-0.71654,-0.43607,-0.002497,-0.1045,-0.89531,0.96671,0.27803,0.38016,0.023072,-1.4563,0.53325,0.27819,-0.23198,-0.10452,-1.686,1.5025,0.68617,0.32909,-0.33408,0.27809,0.023078,-0.66562,-0.58913,-1.2778,-0.89524,1.3495,0.8393,0.38002,0.43108,-0.46154,-0.41049,0.023084,-0.74218,-0.79316,-0.30857,2.7522,1.4514,-0.61457,-0.69111,-1.3033,0.55878,0.63523,-0.53829,0.53313,-1.0482,-0.81867,-0.15548,-0.8696,-2.5787,3.7216,4.6909,0.32913,-0.8442,-0.97169,-1.6094,-1.0483,-0.53811,-0.94619,0.023059,1.2473,0.25256,-0.61459,0.76277,0.94133,0.20149,-0.079045,-0.385,-0.97168,-0.69107,0.68632,1.9106,-1.6096,-0.1301,4.6654,-1.584,-1.5838,-0.58913,-2.2216,-0.43602,0.99241,-0.053439,-0.00251,0.99215,-0.4871,-0.38505,0.45662,-0.2322,0.76275,1.018,-0.66553,-0.15544,-0.027938,-0.81874,-1.2013,0.96674,1.4259,0.30362,-0.46161,-0.99721,-1.7879,-0.10457,1.4005,-0.99728,-0.053525,1.8341,-0.078996,-1.1248,-0.25748,0.91587,-0.76763,-0.9462,0.8392,1.4513,0.81368,-0.027925,-0.3851,-0.71657,-0.41063,-1.3797,-1.0992,2.2677,0.89014,0.55859,-0.97171,-0.99721,0.099534,0.50772,-1.4818,1.0179,1.579,-0.25772,-0.23205,-1.7879,0.55869,0.99239,-0.33401,-0.94627,-1.2013,-1.3289,2.5483,3.0329,-0.15548,-0.53821,-1.0738,-1.3033,-0.6146,-0.2574,0.38016,0.17608,0.6096,-0.02806,0.4822,0.38019,-0.35956,-0.56357,-0.10445,0.45666,0.15054,-0.10454,-0.41055,-0.43614,-0.18104,1.1198,0.53324,0.20149,-0.33402,0.96683,-0.33396,-1.4308,-0.71667,0.074106,-1.2014,0.15055,1.2985,0.27811,1.1453,-1.1758,0.20159,0.9923,-0.46156,-0.71662,0.20167,0.15056,-0.66568,0.71159,0.83914,0.12504,-1.5583,-0.46147,0.73736,0.17614,-0.35961,-0.81873,-0.56364,0.81377,1.5534,0.099412,-0.58926,0.27819,0.27825,-0.58907,-0.97177,-0.33405,0.9668,0.66074,0.07402,-0.46161,-0.18101,0.99239,-0.61457,-0.23202,-0.30863,-0.3597,0.38014,0.73733,-1.7879,1.6044,2.3954,-0.79318,0.048494,-1.0993,-0.94627,-1.0993,-0.15551,-0.02792,0.17611,0.71172,0.86467,0.38008,-0.027944,-0.53802,0.32916,0.58419,-0.56365,0.1251,0.099515,-0.51262,-0.58909,0.099552,0.35471,-0.43611,0.81371,-0.30864,-0.25759,-0.97173,-0.027998,0.9923,-0.4361,-0.027834,0.4823,0.22722,-0.027944,-0.74221,0.12499,0.81364,0.4055,-0.2065,-0.6911,0.22717,-0.84407,0.12515,0.15059,-0.13008,0.073917,0.32903,0.78821,1.426,-0.94624,-1.1248,0.38022,0.60979,-1.3034,0.60962,0.81378,-0.92072,-0.7932,-0.002491,0.71175,0.27812,-0.05347,0.81376,-0.027962,-0.20652,-0.18101,0.15061,-1.4308,-0.027895,1.2983,0.1251,0.30363,-0.23204,-0.18101,-0.97176,-1.0228,0.7628,0.99221,0.53317,0.66061,0.25258,-1.1502,-0.94612,-0.5636,-0.23203,-0.15556,0.20158,-0.4871,0.099497,1.8596,1.5279,-0.41058,-0.41055,-0.61461,-0.86977,0.25263,-0.283,-0.33405,0.25257,-0.002436,0.91571,1.0688,-0.18106,-1.7114,-0.84408,0.27815,0.07402,-0.12999,0.66072,-0.053476,0.27813,0.073971,0.71162,0.048518,-0.46157,-0.51259,-0.51254,-0.53806,0.023072,0.96686,0.3291,1.834,-0.002583,-0.56365,-0.79324,-1.0737,-0.46155,0.048598,0.3037,-0.51256,0.76282,0.71174,1.0176,0.38001,-0.23213,-0.66563,-0.71657,-0.76757,0.099644,-0.13002,0.73726,0.76273,-0.35949,-0.12998,-0.76775,-0.33416,1.5025,-0.28303,1.1453,0.4056,-1.0227,-0.56362,-0.30856,-0.74208,0.02295,0.048543,-0.027931,-0.12995,-0.079008,-0.71667,1.1964,0.12513,0.78828,-0.38511,0.63504,1.0431,-0.76777,-0.76761,-0.28286,0.5843,-1.2523,0.35461,0.099686,-0.3596,-0.13005,-0.15567,-0.25749,-0.43606,-0.053348,2.5226,0.83926,0.63504,-0.84408,-1.1502,-0.84419,-0.84413,-0.7676,-1.3544,0.12501,2.1401,2.089,0.86469,-0.53809,-0.97171,-0.64011,0.25259,-0.4361,0.04858,-0.74213,-0.15554,0.022931,1.1197,2.4464,-0.15541,-0.79312,-1.2778,-1.0227,-0.5636,-0.053464,-1.4309,0.73721,2.0381,1.5023,1.0688,-0.51269,-0.2064,-0.97163,-0.79309,-0.48707,-0.53809,0.81376,0.73729,-0.18105,-0.028042,-0.46165,0.25249,0.48208,0.32908,0.20169,-0.81862,-0.053433,-0.94614,-0.53804,0.91588,0.53323,0.81368,0.68604,0.30339,-0.053495,-0.61458,-1.0737,-1.5583,-0.41044,-0.84419,-0.38514,1.8851,1.4004,1.1707,0.099485,-1.1248,-0.69108,-0.48697,-0.84412,-0.41058,-1.1248,1.6044,1.732,-0.028029,0.023047,-0.07907,-0.46164,-0.15532,-0.23193,-0.15557,0.40556,0.27811,-0.28306,-0.25757,0.22718,-0.078923,-0.7166,0.048518,0.55873,0.58408,-0.71675,0.048573,1.2985,-0.30855,-0.002448,-0.41058,-0.64012,-0.48711,-0.30855,0.78827,0.89026,-0.92077,-0.2321,1.7066,0.073965,-0.46156,0.35473,-0.48703,-0.66566,-0.48709,-0.61465,0.099528,-0.18105,0.86481,-0.053446,-0.078972,0.81365,0.60972,0.074062,-0.4871,-0.20652,0.048567,-0.30855,-0.33404,0.27803,0.22706,-0.18097,-0.43598,-0.05347,-0.53807,0.66077,1.6556,-0.10456,-0.23209,-0.30861,-0.30858,-0.79329,0.55871,0.048616,-1.3543,0.99242,1.1965,0.43108,-0.30867,-0.41064,-0.7167,-0.86966,-0.23196,0.30368,0.43119,0.7118,0.074008
-0.181,-0.18098,-0.15546,-0.027969,0.022992,0.023047,0.074044,0.048531,0.074057,-0.002448,-0.002461,-0.027962,0.023041,-0.079002,0.099534,0.023047,0.048543,-0.002491,0.023023,-0.23195,-0.23202,-0.027969,0.76277,0.60971,0.073984,-0.23203,-0.48708,-0.35957,-0.33406,0.074087,0.023078,0.023047,0.074075,-0.002461,0.43111,0.048536,0.25252,0.023017,0.15069,-0.002394,0.074026,0.32908,-0.28304,-0.46162,0.12504,-0.18097,0.38017,-0.002521,-0.18101,0.73724,-0.25746,-0.79319,-0.23196,0.76282,1.0689,-0.79326,0.073794,-0.66586,1.0687,1.5536,0.7629,-0.38491,-1.992,-1.7368,-0.15558,0.30364,1.8851,0.27812,-1.38,0.15049,1.5534,2.0125,0.45671,-0.58893,-1.2013,-0.6912,0.2526,-1.4562,0.048458,0.43113,-0.35978,-0.41063,1.8595,1.273,-0.46128,-1.1247,-2.043,0.63493,2.8287,1.4262,-1.0992,-0.92058,-2.4509,-1.3799,0.53302,1.8337,0.4056,0.35461,-0.51252,-1.7113,-1.2267,-0.053671,2.8285,3.1095,1.12,-0.41054,-1.6348,-1.9155,-2.1961,-0.078733,-0.15553,0.81355,2.7777,1.0944,-0.89514,-0.89512,0.22706,-0.028066,-0.71657,-0.71648,-0.078953,-1.7369,0.40577,1.5533,0.68603,1.3237,-0.43631,2.3441,1.8087,-1.0992,-1.7114,-0.61436,-1.6857,-1.3798,-0.53815,0.073819,0.81366,0.60963,-0.18098,0.45654,-0.053495,1.3241,0.91601,-0.76743,-0.41047,0.22698,0.78788,-0.48722,-0.5891,0.048561,-1.0483,-1.2778,-0.23196,-0.38501,1.8595,2.6503,-0.99734,-1.5584,1.6301,0.58435,-3.3949,-1.4309,1.3748,0.96671,2.7267,1.1454,-2.6552,-2.8337,-2.0175,-0.20661,1.4257,1.6556,-0.078892,-0.078984,-1.4308,0.73747,0.60985,0.73715,0.099552,0.22686,0.12494,-0.79316,-2.2468,-1.4307,0.15068,1.0687,2.038,0.50741,1.3749,0.94131,-1.8901,-2.7317,-1.1757,4.385,4.4357,1.1452,-1.9411,-4.3132,-1.6857,1.3241,0.15062,-0.46151,-3.6756,0.48186,4.4358,3.0076,0.048714,0.89018,-1.0995,0.022931,-2.0174,-1.6093,-0.46139,0.63527,1.7576,1.0433,-1.2014,-3.6502,-0.05366,0.94121,-2.2471,4.5635,0.7884,-0.4871,-0.5381,-1.3798,-0.92074,-0.46156,-0.66581,-1.5331,6.0174,4.232,-1.4818,-1.4819,-2.4511,-2.2982,-0.81877,0.22689,0.78814,3.1348,0.4312,-0.66555,-1.0991,-1.1757,-1.3799,-0.12997,3.0074,1.4769,0.074013,-2.9359,0.15068,4.2829,0.83941,-0.53821,0.68611,-0.99735,-2.5532,-1.8134,-1.0992,-4.3131,2.7524,3.594,1.0687,0.76278,-0.89524,-0.64017,-1.1247,-0.33402,-0.79327,0.73711,1.0944,0.71176,0.8392,-0.9971,-1.2522,-1.4562,1.0434,1.7573,1.3238,-1.8645,0.4058,0.60975,-1.1758,-0.41049,-1.4053,-0.5127,-1.1759,1.0942,1.171,1.2985,-0.41063,1.0688,1.6556,-2.5787,-1.0993,1.0689,2.3697,0.048463,-0.99724,-2.043,0.074044,-0.43607,-1.992,0.9414,0.8392,0.76251,0.25241,0.58422,1.7831,-1.6093,-0.51248,-0.38501,-1.788,2.4974,0.96696,-1.1504,-1.6605,0.2016,1.5279,-1.3799,-1.6349,1.4259,1.5534,-3.497,0.89031,2.6249,1.171,0.17603,-0.92078,0.38016,-1.6859,-1.5329,-0.7168,-0.28312,-1.4564,2.2676,2.3697,0.50768,-0.43597,-0.61434,-1.2521,-0.25745,0.27817,0.40546,0.35439,1.4514,-1.0229,-0.35955,0.89044,-0.35949,-0.10444,-2.9613,1.7831,2.1911,-0.23205,-2.8338,-2.5531,4.6655,0.68637,-1.2524,0.099412,0.53298,-0.81861,-0.07885,-1.7113,0.30361,1.1707,0.81375,0.38008,-0.97175,-0.99721,1.0945,0.78838,-0.3596,-1.482,-1.788,4.8184,2.2931,-1.2014,-1.8645,-1.8134,0.78829,-1.0227,-0.69107,-0.3085,-0.46158,-0.18106,0.53306,2.7776,1.2727,-0.10457,-1.9664,-1.0734,1.5538,0.99232,1.3239,-1.1249,-0.66566,-0.76769,-0.71666,-2.2471,-0.76762,3.8492,1.1196,1.1705,-0.51269,-0.97161,-0.97168,-2.1194,-1.0991,1.5282,0.35483,-0.5383,1.7573,3.3134,-0.71669,-1.3543,-1.0228,-1.9155,-0.027882,-0.74209,-0.23199,3.7216,1.1708,0.55839,-0.43607,-0.12995,-0.66565,-1.8645,-0.58905,-0.63999,-1.9154,-0.48688,-1.4308,4.6907,6.7312,-0.46176,-2.4767,-1.2778,-2.6297,0.71182,0.35474,-1.6603,0.12526,0.022998,0.27792,0.89011,-0.46151,-0.64021,0.38022,0.43118,-2.8848,0.78819,5.9152,-0.028109,0.1762,-0.97157,0.7883,-0.4871,-1.584,-1.8645,-1.8899,-2.298,0.17603,2.7266,1.8849,-0.76772,1.7066,1.069,-0.079039,-2.3491,-0.64003,2.0893,1.1709,0.58407,-0.94642,-0.61472,-0.94622,-1.7368,-0.71648,1.0945,-1.2778,1.0432,1.9104,1.8084,1.3493,-1.4819,-1.1502,-2.3235,-3.0377,3.5688,2.5741,-0.51257,0.27778,0.35423,-0.74245,-1.7369,-1.4052,-0.10435,-1.8389,-0.66568,3.7472,3.339,0.55869,-0.18105,-1.9411,-1.6859,0.94136,2.8798,0.022889,-0.48716,-0.64004,-1.5838,-0.53804,-0.15558,-1.2523,0.99229,0.12503,-1.9921,3.1859,3.4157,-2.3236,-1.6603,-1.2522,-0.84434,5.201,2.7013,-1.6605,-3.752,-1.0226,-0.46148,-0.94622,0.048555,0.38003,1.2216,0.50753,0.073965,0.35471,-0.99715,-0.97151,-1.7879,-1.7625,8.4659,5.6347,-0.97188,-2.5787,-3.6754,-4.0836,-2.1704,1.2219,1.0687,1.4259,0.20155,-0.35968,0.48219,-0.79312,1.8851,0.81363,0.048531,-0.053513,-2.1451,-0.10436,2.5484,0.17614,-0.94612,-1.3033,-1.3034,1.4259,0.43096,-1.6606,-1.89,3.7982,2.3952,0.71184,-0.66553,-1.3799,-2.094,-2.2981,0.099497,0.023035,-0.20659,0.022925,2.7267,2.3442,0.58429,-0.74221,-0.97169,-0.027809,-0.76759,-0.18101,0.17612,-0.33413,-0.13014,2.4971,1.2983,-0.84422,-2.145,-0.6145,0.83949,0.48227,-3.3695,1.0689,2.1656,0.40574,-0.58914,-0.84424,-3.3695,1.9361,3.645,1.3492,0.83925,-0.61462,-1.3798,-0.76763,-0.89516,-2.2469,-1.6349,3.0074,3.0327,0.40547,-0.0535,-0.9462,-1.9919,-0.20638,2.7524,-0.43622,0.3035,-0.33413,-0.6147,-0.58916,-0.81864,-0.53803,-0.12988,0.25258,1.8342,3.5175,0.12474,-0.76778,-1.0991,-2.1705,-1.0737,0.96699,-0.078953,-1.176,-0.38516,4.4867,0.12501,0.40558,0.35477,-2.1195,-2.2724,0.048604,0.35445,1.1452,0.12491,-2.2981,2.5484,0.7118,-0.436,-0.10453,-0.43619,-0.38514,0.35475,-0.436,0.074081,-0.18098,0.81359,1.1961,0.9667,-0.63992,-0.41041,-1.737,-0.69115,0.30361,0.17615,1.4516,-0.30861,0.91554,1.0431,-0.51278,-1.2522,-1.4307,-0.84398,-0.86952,0.07416,1.7831,-0.92087,0.048451,2.4717,1.0433,-0.69125,-1.3035,-2.196,0.76275,2.9818,0.839,-0.46154,-0.58894,-1.6349,-1.1757,-0.64006,-0.79302,-1.0227,0.78821,2.5737,0.38004,0.12492,0.074013,0.43106,-1.6859,0.17617,0.68639,-0.46159,-0.79324,1.2984,-0.23208,-1.0993,2.2677,-0.43607,-1.941,-0.35964,1.6555,1.171,-0.61462,-1.4818,-2.1961,-0.8442,0.63524,1.6808,1.6552,0.43101,-1.0226,-0.94597,-0.38481,-0.38498,-0.64013,-0.41076,0.45653,3.2112,1.6301,-3.599,2.9054,1.6046,-1.6859,-1.941,-1.4055,-1.7116,-0.028018,1.9362,0.66073,-0.64013,0.25274,0.83931,0.048415,-0.4617,-0.23184,1.0688,0.17609,-0.027956,0.15047,-1.6604,0.15048,1.2475,-1.0737,-1.6095,2.1402,0.30364,-0.58915,0.91583,-0.81872,-0.002595,-0.2321,-1.4819,0.074087,2.7013,0.40561,-1.3289,0.4312,-0.99709,0.023261,0.40565,0.02301,0.35451,-0.69114,-1.2779,-1.1757,2.5993,1.9616,-0.92082,-0.002534,0.25262,-0.86967,-0.71668,-1.2524,-0.56367,1.3496,-0.002374,0.30359,1.4259,-0.28312,-0.92064,-0.25741,-1.2524,0.15057,1.7831,0.32912,0.78812,-2.0177,1.1198,0.76295,-0.94605,-1.3289,0.53308,-1.0738,1.1199,1.0689,-0.28305,-1.0482,-0.23201,0.023023,-0.28303,-0.66578,1.1453,2.4462,-0.30846,-0.5637,-1.5074,0.86485,0.89049,-1.737,-0.58922,2.8287,-0.43607,-0.71656,-0.25743,0.17607,-1.0993,-0.41071,0.023047,-0.53806,0.30363,0.38019,1.0178,-0.43602,0.76272,0.22691,-0.51258,0.5077,-0.8696,-0.97168,-0.86967,0.76281,-0.69118,-0.07891,2.3442,1.1197,0.12488,-0.76778,-1.6095,-0.48706,1.9872,-0.64006,-1.8134,0.50787,-0.002503,-0.002717,-0.58922,-0.79313,0.023072,0.60972,-0.20649,1.2985,-0.74215,-0.002345,0.78822,2.191,-1.2014,-1.4309,-0.99723,0.71184,-1.6605,-0.89528,1.7832,1.6811,1.7831,-0.38511,-0.76771,-1.3544,-1.0738,-2.1198,-0.38515,4.0787,3.0076,-1.8899,-1.2776,-1.2523,-1.7115,0.22704,-0.43611,-0.28308,2.0637,2.0381,0.073965,-0.79326,-0.69097,0.38027,-0.43624,0.40542,0.074013,-2.2725,0.94142,-0.69105,-0.5125,1.8853,-0.028072,1.2472,1.0431,-0.48714,-0.9717,-2.6552,0.86495,-0.25741,-1.3288,1.2727,2.0635,0.89031,-1.2013,-0.81868,0.6609,0.43128,-0.79321,-0.053446,-0.18094,-0.25755,-1.0738,-0.71677,1.3239,1.0943,0.91564,0.20129,0.27817,-0.69101,-0.51244,1.6048,0.96702,-1.4564,0.048438,-0.079124,-0.81882,-0.23218,-1.1757,-0.81855,-1.1759,0.86458,1.2729,1.8595,-0.30847,-0.25743,-1.5583,-1.2522,3.3645,-0.079148,0.83901,1.5025,-0.58915,-0.97168,-1.6859,-2.6806,-3.242,2.8542,5.2262,-0.13005,-0.76757,-1.4052,-2.5785,0.38025,-0.25748,-0.15545,-0.33409,1.4768,0.96674,1.3748,1.0179,-0.33399,-0.99742,0.20148,-0.027956,-1.2777,0.71173,0.55868,0.048763,-0.38486,-0.86969,-0.079093,0.30346,-1.3545,-2.0175,2.0892,3.3135,-0.3088,0.3293,-1.5073,-1.6858,-0.23199,-0.13017,-0.64031,1.7319,1.6555,-0.53801,-0.58898,-1.2777,-0.43601,-0.23204,0.27815,1.4769,0.76267,0.78804,-0.92076,-0.43615,-0.25746,-0.79316,-0.7166,-1.2522,-0.027889,0.99233,2.3951,1.1962,0.99224,-1.3799,-2.1704,-1.3032,-0.64006,1.1708,1.1454,0.66048,0.40549,-1.1758,-0.43591,-1.6092,0.4567,1.8341,-0.15568,-3.5737,3.5431,1.9362,-0.13002,-0.053592,-1.0228,-0.9463,-0.48705,-0.23204,-1.737,-0.69106,1.6301,0.58422,0.099528,-1.6606,1.2729,2.1148,-0.027962,-0.43606,-0.53814,-1.3544,0.15055,0.76276,-0.028023,-0.35957,0.38004,-0.51268,-0.56362,1.7067,0.35475,-0.28296,-0.97165,-0.86967,-0.48714,-0.89522,-1.6861,2.3697,4.5123,0.22707,-1.3289,0.12498,-0.84426,-1.1758,-1.5074,-0.66565,-0.79323,1.1964,2.421,0.96691,-0.64016,-0.64,-0.84415,-0.35967,-0.46172,0.53307,-0.35972,-0.38502,1.5028,0.40568,-0.053586,-0.053629,0.58414,-0.1044,-3.0123,1.8851,1.528,-0.61474,-1.737,-1.8645,0.12513,0.66077,0.22707,0.099454,-0.61468,-0.23194,0.45669,2.4207,1.7319,-0.81866,-0.64007,-0.79312,-0.58917,-1.0228,1.2217,-0.28292,-0.41049,-1.1503,1.0179,0.30366,0.27808,0.71168,-0.15545,-1.3799,0.38009,2.4208,-0.79326,0.35457,-0.41058,-0.64015,-1.0993,-0.61458,0.15072,0.60977,1.6045,-1.4312,1.1961,1.375,-0.027803,-0.63997,-1.0991,-0.92065,-1.3034,1.0432,1.7065,0.55857,0.20149,-1.5839,-0.23199,0.76285,-1.3543,1.2475,0.5842,0.022937,-0.92076,-0.3341,-0.84431,1.0434,1.987,-0.6146,-0.43609,-0.64014,-0.64001,-0.9972,-0.48712,0.40563,0.32917,0.89019,-0.2832,0.8903,0.96699,-2.7317,-0.12996,1.0689,1.3494,1.2473,-0.002534,-0.61476,-0.97187,-0.71665,-1.2268,-2.4767,2.0637,4.1044,-0.25759,-0.2066,-0.84434,-1.4053,-0.20636,0.81381,0.3035,-0.15557,-2.2471,2.4718,1.4771,-0.84419,-0.84422,-0.51261,-1.4054,0.89029,-0.28316,0.40555,3.5176,0.53323,-0.79319,-1.2013,-0.8442,-0.86974,-0.74222,0.17619,-0.28296,-0.078855,1.8597,-0.28311,-0.079112,-0.43619,1.0432,-0.46142,0.074051,0.4821,-0.078953,0.12515,-0.56356,0.38008,-1.3544,0.53317,-0.74214,0.91584,1.2984,-1.9665,-0.46165,0.76275,1.3749,1.4257,-1.9922,-0.18098,1.8853,-0.46157,-1.839,-0.7931,-0.38497,-0.64003,-0.12994,0.6352,0.78807,2.2164,1.5787,-0.84415,0.8905,0.048763,-1.5327,-1.9664,0.45672,0.43109,0.48195,0.78801,-0.002565,-0.89514,-0.92052,-1.5583,-0.2064,1.6047,0.074013,-0.71677,1.6043,1.7574,0.58405,-0.66567,-3.5479,-0.28291,2.3954,-0.15537,-1.0738,-0.027969,-0.43612,0.63511,2.0634,-0.15566,-1.2013,-0.053427,-0.41046,-0.92065,0.048592,-1.5585,0.32906,2.931,0.99235,0.20152,-0.33413,-0.6147,-0.53807,-0.25742,-0.97168,-0.12998,1.4514,1.2983,0.22672,0.38004,-1.1756,-0.66551,-0.6145,-0.12994,-0.38498,-0.41051,-0.28305,-0.56366,-2.0432,2.4717,4.0021,2.4461,0.1251,-1.8644,-2.1195,-1.7114,-1.2777,-2.7062,0.45677,2.6503,2.5991,1.1708,-0.38504,-2.1195,-0.10438,-0.61457,0.17612,-0.74214,1.0176,2.599,1.0432,-0.46157,-0.9971,-1.2011,-1.3032,-1.7879,-0.13007,0.25256,2.6502,2.2166,0.3545,-0.43616,-0.94625,-1.6603,-0.89517,-0.33393,-0.43601,-2.4512,1.3238,2.6757,3.0838,0.81372,-0.81874,-1.9156,-1.0226,-1.2011,-0.94616,-0.1557,1.2982,0.78813,-0.23197,0.25261,-0.23188,-0.35945,-0.23196,-0.76773,1.477,0.55869,-0.76772,0.43087,0.89007,1.7065,-0.89514,-1.1246,-0.69093,-3.2163,0.20166,2.5993,1.5534,0.63518,-0.92079,-2.4002,-1.1503,3.0074,-0.2065,-0.13007,0.37998,-0.86986,1.1707,0.6608,0.63536,-0.74197,-1.5837,0.78838,0.3546,-0.20667,-0.74229,0.96675,0.89035,-0.33403,-0.61468,0.12507,-1.0738,-0.30847,0.50787,-0.9718,1.6553,2.8795,-0.2065,-1.0738,-1.2778,-0.12989,-0.10426,-0.58896,-0.23197,0.20156,-0.079081,-0.28314,1.7065,0.45667,0.099503,-0.23205,-0.23211,-0.079033,-0.20657,-1.4054,0.15059,3.3136,2.8036,-1.4053,-1.4054,-1.2269,-1.8389,-0.53803,0.15064,-0.053464,0.40563,-0.28322,1.6555,0.94127,-0.20652,0.074062,0.074038,-0.15546,-0.28298,-0.71662,0.5841,0.022907,1.6554,-0.41048,-0.43599,0.27816,-0.053519,0.099546,-1.4053,-1.2778,-0.12996,1.9618,0.58426,-0.79323,-0.51273,-0.76781,1.8085,1.0688,-1.5584,-0.002338,1.783,-0.002521,-0.58909,-0.38504,-0.43606,0.40546,-0.56375,0.17612,-0.23169,-1.0226,-0.84424,0.07394,2.4207,1.2473,-0.35966,0.40566,1.1199,-0.20652,-1.3798,-0.61462,-1.2269,-0.48721,0.1506,0.27812,-0.41055,0.099546,0.43129,-0.2319,0.91578,0.35463,1.0177,-0.28312,-3.2419,1.2729,3.6451,0.76275,-1.2778,-1.2523,-0.84436,-1.2268,-0.027901,0.78837,0.17607,-0.48709,-0.79318,0.40565,0.76287,0.40554,0.99221,0.60958,-0.23205,-0.84421,-1.2267,-0.027944,0.15063,1.4514,0.3291,0.94128,-0.86962,-0.48709,-0.1301,-1.0227,-0.99714,0.48217,-0.13012,0.12503,0.38012,1.5535,2.7013,-0.05339,-1.6094,-0.94617,0.45677,-1.5839,-0.43613,-1.4309,0.96669,0.40576,0.023059,-0.53818,-0.028096,2.1657,0.83925,-0.13003,0.099608,1.9872,-0.48719,-0.76771,-1.5584,-1.8645,0.099644,0.38025,0.15052,0.25249,-0.28301,0.022986,0.91573,0.48211,-0.027962,-0.53801,0.12519,0.8394,-0.61463,-0.15559,0.533,0.30355,-0.25749,-1.5328,0.40566,1.5536,-1.5074,-0.53814,0.48211,0.35457,1.3239,1.0177,-0.58914,-0.76767,-0.9717,-1.3032,0.76287,0.023096,-0.89532,0.81364,1.3494,-0.13002,-0.69107,-0.74208,-0.92066,0.60968,1.0944,0.3036,0.099564,-1.0738,0.30349,0.48215,-0.002467,0.22719,-0.053476,-0.58913,-0.7167,0.4312,0.81373,-0.13004,-0.41057,-2.043,1.324,2.2422,-0.13001,-0.76769,-0.48719,-0.66572,-0.002601,0.20152,-0.7932,2.1658,-0.56348,-1.8898,1.3494,2.9053,0.40549,-1.2523,-1.7624,-1.6859,0.86483,0.94122,-0.76775,0.50764,1.936,0.73714,-0.69105,-0.84411,-0.38508,-0.38498,-0.48712,-0.9972,0.78823,2.1656,-0.053604,0.023121,0.15052,-1.8135,1.4006,-0.20647,-1.3289,-0.20657,-0.15548,0.2271,0.43113,-0.13007,-0.002412,-0.12997,1.528,1.1964,-0.84424,0.2016,-0.053458,-0.97172,-1.0993,-0.30861,0.45677,-0.58911,0.099515,1.3492,-1.1758,-0.07885,1.324,0.83931,-0.20648,-1.2013,0.78824,-0.13004,0.099394,-0.25764,-0.18112,-0.41051,0.3547,-1.2267,-0.02776,1.5536,-0.079106,-0.58916,1.579,-0.43616,-0.35964,0.40569,-0.53811,-0.53808,-1.5329,-0.56353,1.1455,0.86474,0.73701,0.48195,0.76273,-0.56356,-0.23184,-1.0991,-0.74211,-0.30856,-0.20652,-0.18103,-0.053573,0.58412,-0.43619,0.96683,1.5279,-0.053451,-0.43603,-0.10445,-0.38517,0.35478,-0.43602,-0.30869,0.32916,-0.48702,-0.53812,-0.74208,-1.2012,-0.20648,2.4717,0.2015,0.17594,0.12499,-0.18108,-0.41063,0.1762,-1.9154,0.074111,0.048598,3.033,0.45667,-0.71679,-0.6658,-1.2015,-0.66552,0.48227,0.20169,0.12523,-0.283,-0.97179,0.9923,1.5279,0.32896,0.50763,-0.58908,-0.81864,-0.7421,-0.181,-0.38498,-0.15551,0.022961,1.1451,1.9104,-0.41058,-0.078874,-0.18087,-0.66556,-0.74214,-0.1555,0.20153,-0.002565,-0.10452,-0.69113,0.68625,0.83928,-0.35961,-0.46158,0.86478,0.45675,-0.79327,1.3749,0.1759,-0.33415,-0.41058,-0.41047,-0.89509,-0.18084,-1.4309,1.2729,1.0944,-0.002619,2.5226,-0.66576,0.074038,0.023114,-1.4308,-0.15545,0.53326,-0.56351,0.048506,0.17607,0.482,-0.28311,-0.078923,0.12515,-0.51255,-0.35948,0.45668,0.78816,1.0176,-0.89524,0.15053,0.15057,-0.30855,-1.1246,-0.58894,-0.81853,-0.1555,1.0434,1.2981,0.73712,1.2217,-0.79312,-2.3491,0.73735,-0.33398,-1.0992,-0.64004,0.27811,0.25248,0.45648,-0.079039,0.17616,-0.053409,0.83922,0.66065,-0.283,-0.74198,0.53323,-0.25763,0.86463,-0.18108,-0.38498,-0.23196,-0.84412,-0.53804,0.12509,0.43108,0.50759,-1.6605,1.0433,2.2932,-0.53806,-0.94621,-1.8644,-1.3033,1.0433,3.441,0.12502,0.12494,-0.99749,-1.2013,-0.053446,0.099608,-0.66566,-0.99713,0.32932,0.4313,0.63504,0.55857,-0.079088,-0.20655,1.1199,-0.00232,-0.76766,-0.20662,-0.20652,-0.1045,1.1197,-0.053506,-0.63998,-0.35949,-1.1501,-0.38517,1.1453,0.37996,-0.027931,0.76276,-0.46154,0.17606,-2.7062,1.4515,2.1657,-0.2321,-0.25759,-1.6094,-0.20647,-0.12995,-0.15543,1.3239,0.30354,0.40539,-0.71663,-1.2777,0.86488,0.96677,-0.15553,-1.2011,-0.92066,0.53321,0.45664,0.60957,0.71155,0.22696,0.17614,-0.76761,-0.48698,-0.81859,-0.76752,-0.74216,1.1963,1.4259,0.3291,-0.33429,1.2983,-0.30847,-1.4309,-0.20647,-0.028078,-0.23201,1.3495,-0.51267,-0.43604,-0.64005,-0.94617,0.15058,0.81375,-0.69119,-0.56359,1.0179,1.5025,0.86466,0.37983,-0.56367,-1.2522,-1.2522,0.023133,0.048616,-0.20666,0.02301,0.66072,-1.5075,1.1199,1.069,-0.38508,-0.28301,-1.2013,-1.5839,1.3495,1.2219,-0.43623,0.60954,-0.15565,-0.69113,1.1709,0.2526,-0.35956,-0.9972,-0.18089,0.73747,-0.33409,0.50761,-0.53819,-0.51258,-0.89518,0.60968,0.86471,-1.4308,-0.48702,1.2729,1.834,0.60962,-1.1758,-0.51259,-0.10453,-0.13011,1.4003,-0.15542,-0.33398,-0.436,-0.43606,-0.81867,-1.2268,1.6045,-0.12999,0.86472,2.1401,0.20156,-0.64012,-0.94617,-0.97169,-0.3341,0.2269,0.35451,-0.078935,-0.84406,0.25272,0.50777,0.099552,0.023005,0.25259,0.38007,-0.30863,-0.18101,0.32921,1.6045,-0.028047,-0.002619,-1.2012,-1.2267,-0.9717,0.15055,0.30364,-1.0228,-0.97169,0.83939,3.492,1.4258,-0.46167,-1.5584,-1.8135,0.43112,0.40562,-0.99725,-0.43608,-0.10439,0.023108,0.58421,-0.15552,-0.97179,1.3494,0.83929,-0.5381,0.09957,0.68617,-0.53805,-0.46154,0.2015,0.073995,-0.48708,-0.46159,0.2016,-0.43609,-0.35948,0.023035,-0.10444,-0.20647,0.32908,1.63,0.43103,-0.30878,0.023065,-0.99712,0.83937,0.43121,-0.81862,-0.002399,-0.71666,-0.48727,0.17592,0.25258,0.71176,0.6863,-1.3288,0.074033,0.50767,-0.30856,-0.028005,-0.74214,0.35456,0.40571,-0.13005,-0.23201,0.58425,-0.94616,-0.64014,0.86475,0.68623,-0.13002,0.45669,-0.79314,-0.76769,0.35444,0.63499,0.12497,1.018,-0.3594,-1.6604,-0.10435,0.63544,-0.002497,1.1196,0.68588,0.53313,-0.25738,-1.0226,-0.86955,-0.436,-0.283,0.074057,-0.48705,0.81366,0.81346,1.4512,0.38023,-0.5125,-0.61459,-1.0482,-1.8134,-0.86962,2.2421,2.7779,-0.64026,-0.64028,-0.5381,-0.74204,-1.7624,0.2526,0.68616,0.8901,0.30348,1.5789,0.0741,-0.86955,-1.2012,-0.81855,0.40577,-0.078972,0.32904,-0.25771,0.12498,-0.86974,1.5535,0.99222,0.22708,0.15064,0.60977,-0.99721,-0.6146,-0.33402,-0.66564,-0.71666,-0.99731,2.4972,1.885,-0.71662,-0.002485,0.76272,0.22715,-0.86965,-1.1757,-0.53815,0.50767,0.02301,-0.10452,-0.46158,-0.053482,1.2983,0.20159,-0.35952,-0.97176,0.86477,0.38006,-0.23199,-0.43606,-0.28301,-0.18101,-0.002497,0.27814,0.73719,-0.053573,-0.25762,-0.38503,-1.3542,0.048598,1.477,1.0943,-0.283,-0.46157,-0.92074,-0.48717,-0.38513,1.9614,0.83934,-0.30849,-0.71657,-0.79314,-0.51254,-1.0738,0.6097,-0.38514,0.63515,2.8797,0.73721,-0.2575,-0.79305,-0.94622,-0.94634,-0.15557,0.27818,-0.028109,-0.7675,-0.61453,0.45674,0.89034,-0.38505,0.1762,0.27809,-0.48722,1.9613,1.3238,-0.18101,-1.0736,-0.41053,-0.23203,-0.12997,-0.48713,-0.48694,-0.23199,0.048531,0.20157,0.17611,0.86472,-0.15562,-0.5892,1.5534,0.58422,-1.1247,-0.81865,-0.97166,-0.28309,0.58416,0.35472,0.27803,-0.58924,-0.53817,0.20177,1.0179,1.069,-0.02809,-0.002632,-0.25775,-1.5073,-0.07899,0.68628,0.20164,-0.053464,-0.46157,-0.48699,-0.078966,0.022998,0.86467,-0.053476,-0.53811,-0.61461,0.81373,1.1453,0.9922,-0.20639,-1.4563,-1.4819,0.12509,0.022992,0.58414,0.78818,-0.76763,-0.38501,-0.58908,-0.002448,0.50768,-0.51262,0.02298,0.78825,0.2271,-0.20652,-0.12998,-0.35954,-0.10452,0.099564,0.27811,0.048476,0.66075,-0.10456,-0.81867,-0.13,-0.38495,-0.25746,1.6556,0.20142,-0.18098,0.63518,-0.053549,-0.28311,-1.1503,-0.15537,-0.002369,-0.078923,-0.283,-0.18105,0.32907,0.50758,0.5586,0.25259,-0.053427,-0.25752,0.2526,0.3292,0.68627,-0.15549,0.22705,-0.46161,-0.58918,-0.41051,-1.2012,-0.25751,1.2219,-0.58916,-0.30858,-0.48706,0.78821,2.1911,0.40557,-0.61465,-1.0737,-0.053372,-0.69097,0.074087,0.17594,0.38004,-0.027901,-0.2575,0.07402,0.55858,0.048549,-0.41054,-0.12993,0.20156,-0.12998,0.73727,-0.02792,-0.89526,0.22711,0.35461,0.76277,0.55876,0.40563,-0.74234,-0.5637,-0.92065,-0.89517,-0.30844,-0.53805,0.43101,2.7012,1.6299,-0.48704,-0.18087,-1.0992,-1.1502,-0.81859,-0.5381,-0.10452,-0.0791,0.30348,1.3748,0.73723,0.099564,-0.10447,-0.76761,-1.4818,1.477,0.55865,-0.28311,-0.078972,-0.58917,-0.84411,0.074069,1.0178,0.023023,-0.51262,-1.3545,0.27815,1.9107,-0.53816,1.5279,0.099626,-0.43609,0.12502,-1.0227,-0.84415,-0.23207,-0.18109,-0.23201,0.048629,0.6352,1.1964,-0.15545,-0.58914,0.17604,0.55864,0.25248,-0.48716,-0.53811,-0.51252,-0.97165,0.7627,2.1912,-0.43604,-1.4818,-0.66573,2.1401,0.45661,-0.89524,-0.94622,-0.58899,-0.79312,0.22709,-0.002558,-1.1758,2.982,1.3493,-0.10463,-0.05364,-0.86966,-1.4818,-1.1757,0.68638,1.1709,0.76267,-0.5126,-0.99724,1.0944,-0.56364,0.20155,-0.15552,0.66072,-0.61464,-0.58921,0.17609,1.6046,0.96678,-0.35961,-0.86975,-1.4563,-1.0737,-0.23205,1.5533,0.8392,-0.61443,0.3038,-0.00243,-0.71672,-0.18098,0.15067,-0.13005,1.1452,0.53303,-1.0992,0.17624,0.38018,-1.4565,0.99229,0.81386,-0.81867,-1.2524,0.73723,0.76278,1.2219,-0.33412,-0.35962,-0.12999,-0.15548,-0.18109,0.45652,-0.30856,-0.99718,-1.5328,0.45673,1.8341,0.45668,-0.61455,-0.4106,-0.33409,0.686,0.76264,0.32918,-0.38493,-1.4818,-0.38495,1.6044,0.3545,0.20149,-0.58907,-1.0481,-0.6911,-0.43612,-0.51266,0.12506,0.12505,0.8392,1.9616,0.45676,-0.43614,0.40567,0.89015,-0.38512,-0.41064,-1.0992,-1.4052,-0.92056,-0.053482,0.89021,0.5587,0.27812,-0.15551,0.58424,0.35466,-0.18105,0.22699,0.27805,-0.12994,-0.181,-0.43607,-0.74221,0.3036,-0.053519,-0.97183,0.73741,0.30381,-0.5126,0.073946,-0.38508,-0.027925,-0.20655,0.63511,0.55848,-0.33405,-0.027778,-0.69104,0.45673,-0.053622,0.35456,0.89027,-0.053366,-0.64012,-0.56363,-0.13002,-0.1299,-0.10445,0.63524,0.73716,-0.18106,-0.53817,-0.69122,0.55862,0.38011,0.35464,-0.43597,-0.43598,0.32918,-0.38506,-0.61464,-0.79326,-0.1554,1.2984,1.1452,0.66058,-0.84411,-0.46156,0.099588,0.4566,-1.0227,0.43128,-0.66562,1.2474,1.0944,-0.4361,-0.92074,-0.48712,-1.0483,-0.35961,0.17604,1.7321,0.63515,-0.53817,-0.41058,0.1251,-0.69107,-0.15548,0.32919,-0.46164,0.15062,0.30368,-0.51258,-0.28297,-0.28298,0.27803,0.30352,-0.43614,1.5279,1.7829,-0.69111,-0.81862,-0.46155,0.20156,-0.99716,-0.51258,0.099662,0.048585,0.048482,-0.028096,0.30353,1.5024,1.0433,-0.79321,0.40571,-0.81858,-0.027944,-0.35951,0.40564,0.48221,-0.51254,-0.86975,-0.79324,-0.61468,0.27812,1.0689,-0.12998,-0.23201,0.35462,0.32903,0.12508,0.20161,0.023023,-0.23196,-0.20646,-0.18101,-0.10449,0.66071,-0.94627,0.71172,0.4312,-0.43606,-0.1555,-0.20652,0.048549,-0.41076,-0.13004,0.53315,-0.56356,-0.28298,-0.18098,0.38024,0.9668,-0.99729,0.048555,1.8596,0.73726,-0.6657,-0.33415,0.27803,-0.58905,-0.28314,0.048391,0.099662,-0.81855,-0.23187,-0.027852,-0.05347,0.17603,0.15052,-0.00251,-0.079039,0.50759,1.0688,0.2781,-0.28304,-0.58911,-1.7624,0.25267,1.9106,0.38,-0.002552,0.023103,-0.2829,-0.43606,-0.23203,-0.81867,0.32898,0.55869,-0.028121,0.15055,-0.002497,-0.56352,-0.20644,0.048622,0.48221,-0.078886,-0.002454,-0.079051,0.68614,-0.07899,-0.9972,0.76273,1.4002,1.4513,0.30363,-1.4818,-1.9664,-1.3543,0.099613,0.5332,-0.94621,0.66076,0.60982,-0.028042,0.3035,0.30353,-0.6146,0.55873,0.53316,-0.027969,-0.15547,0.02301,-0.58908,0.15051,-0.027974,0.43113,-0.35947,-0.13,0.66065,0.50776,-1.1248,-0.20653,0.50772,-0.10447,-0.64013,-0.23203,0.55856,-0.18106,0.074106,1.2984,1.63,-0.079021,-1.3288,-1.0482,-0.84412,-0.71665,-0.41059,1.3239,0.4566,-0.10454,0.94133,-0.18097,-0.20655,0.99229,0.50759,-0.5891,-0.002387,-0.71668,-0.66562,-0.15548,0.15049,-0.35962,-1.4053,1.0434,2.4973,0.45668,-0.53812,-0.84422,-1.3034,0.55869,-0.10455,0.048458,-0.33406,0.4312,0.17611,0.25265,-0.41049,0.60966,1.0432,-0.94627,-0.79315,1.2984,1.3239,0.48226,-1.5583,-2.5276,-0.71667,3.492,1.0432,-0.35975,-1.1503,0.58424,0.023127,-0.79309,-1.4818,-0.76762,-0.25751,0.38001,1.2983,0.12497,-0.10447,2.0382,0.86483,-0.23201,-0.69115,-0.81869,-0.94632,0.96687,1.1454,-0.56366,-0.35964,-0.10456,-0.10449,-0.84422,-1.3288,1.1965,1.2219,-0.079045,-0.41066,0.94124,0.89037,-0.61467,-0.79323,-0.46154,-1.6604,1.4516,-0.12994,-0.86979,2.3696,0.60952,-0.61473,-0.3085,0.25274,-0.43599,-0.41053,-1.4053,0.53314,0.86483,0.35465,0.17599,0.45645,0.45649,-0.69105,-1.201,-0.99711,-0.00251,0.48215,1.0433,0.73721,-0.053544,0.099546,-0.28305,-1.2779,1.7576,0.048598,-0.79319,-0.58913,-0.30862,-0.30856,-0.20656,0.32907,0.4311,0.60977,0.07416,-0.23196,-0.10443,-0.28297,-0.64014,-0.6912,2.2421,1.1453,0.15041,-0.43604,-0.46148,-0.97172,-0.71656,-0.436,-0.38508,-0.053525,0.12506,-0.027974,-0.18099,0.71175,0.96676,0.58419,-0.8443,0.048573,0.91585,0.12506,-0.5381,-0.79318,0.15051,0.099521,-0.053402,-0.41053,-0.92067,-0.05347,-0.002528,-0.053482,0.58421,0.5587,-0.002472,-0.48711,-0.002528,1.1963,0.48219,-0.69107,-0.86958,0.12505,-0.15548,-0.25764,0.1506,0.96683,-0.25752,-0.3341,-1.0483,0.25259,0.4567,0.76269,-0.078984,0.22707,1.477,-0.33406,-2.2726,-3.5734,2.6504,1.9106,-0.33407,-0.1045,-0.41066,-0.66575,-0.23208,-0.38511,-0.053476,-0.76758,-0.25746,2.1401,1.834,-0.18106,-0.53806,-0.15544,-0.56359,-0.43612,-0.48713,-0.15552,1.579,0.43121,-1.1248,-0.20649,-0.35957,-0.86977,0.12499,0.17612,-0.89518,0.60972,0.9157,1.8595,0.40559,-0.30854,-1.1503,-1.2267,-0.66562,-0.76761,-0.18097,0.94134,0.89029,-0.18105,-0.23202,0.40557,0.76263,0.17586,0.5332,0.20166,-1.1757,-1.8134,0.3548,2.1657,1.936,-0.7932,-1.3034,-1.2013,0.023017
-0.002485,-0.027956,-0.002485,0.023035,-0.002461,-0.078972,-0.00243,-0.027969,-0.002461,0.074033,-0.002491,-0.002461,-0.002491,-0.002467,0.023054,-0.053476,-0.10445,-0.078959,-0.027969,0.15055,-0.027993,0.09957,-0.38509,0.074044,0.17611,0.22711,-0.027969,-0.283,-0.053476,0.074013,0.099552,0.023054,0.023029,-0.002479,-0.002467,-0.002448,-0.10445,-0.12998,-0.13001,0.20154,-0.027962,0.048543,0.023029,0.099564,-0.027956,-0.10448,0.048561,-0.053446,-0.078984,0.074002,0.12504,0.099546,0.048531,0.023047,0.023072,-0.002436,-0.053464,-0.027944,-0.10447,0.12501,-0.002485,0.048543,-0.078996,0.048543,-0.078972,-0.078966,0.048561,-0.38506,0.023054,0.15055,0.074026,0.15057,-0.002467,0.048531,0.048567,-0.027944,-0.15549,-0.10448,-0.10448,0.15054,0.12505,0.099546,0.12505,-0.027969,-0.053476,-0.078959,-0.10447,-0.027956,-0.12998,0.048512,0.09954,0.17606,0.02301,0.048555,0.023047,-0.053464,-0.078953,-0.027969,-0.027974,0.15057,-0.028005,0.048531,0.074062,0.048531,-0.027969,-0.027956,-0.078966,-0.10444,-0.053464,0.099528,0.023041,-0.027993,0.023035,0.048561,0.048555,0.023047,-0.12995,-0.18098,-0.079008,0.38006,0.20156,0.22704,-0.078984,-0.18097,-0.28297,-0.23198,-0.10445,-0.027944,-0.1045,0.15052,0.074038,0.048531,0.20155,0.048561,-0.05347,0.048549,-0.078966,-0.15549,0.074051,0.099534,0.35461,-0.28304,-0.1555,-0.002472,-0.002461,-0.20649,0.048567,0.15062,0.25262,0.074013,-0.028005,-0.053488,-0.30857,-0.15551,-0.15548,0.12508,-0.10446,-0.10445,0.048555,0.22704,0.17604,-0.002472,0.15056,-0.002467,-0.15545,-0.05347,-0.002443,-0.027974,0.27807,0.048543,-0.028018,-0.10449,-0.15548,-0.053476,0.27808,-0.18098,0.048543,-0.15545,-0.10447,0.15056,0.27803,0.099515,-0.027944,-0.10447,-0.10444,-0.20648,-0.2065,-0.002423,0.48211,0.3545,0.22702,-0.15552,-0.48706,-0.10445,0.27815,0.099626,-0.12995,-0.2575,0.176,0.099546,-0.00251,-0.18099,-0.30849,-0.078966,0.099559,-0.13005,-0.027969,0.3802,1.0178,0.30356,0.023017,-0.81872,-0.51265,-0.18098,0.45666,-0.2065,-0.64007,-0.38497,0.27815,0.50759,0.83914,0.15049,-0.28306,-0.43609,-0.18097,-0.48695,0.22717,-0.00232,0.099521,-0.07907,-0.28314,0.17604,0.94128,0.20167,-0.053451,0.30354,-0.33415,-0.66572,-1.0482,-0.38499,0.3802,0.53318,0.2527,-0.30852,0.50765,-0.20661,-0.18107,2.0125,1.3495,-0.4361,-0.81871,-0.74218,-1.6604,-1.2523,0.32925,0.023084,0.68621,0.048561,0.7117,2.14,0.66062,-0.74212,-0.89509,-0.74213,-0.61456,0.20157,0.12504,-0.30851,0.17609,0.38001,0.55858,0.5331,-0.027962,-0.53798,0.023145,-0.12998,0.25266,0.60973,-0.12994,-0.2575,-0.56369,-0.66565,-0.20663,0.55848,0.48204,-0.35953,-0.61447,0.40568,0.048616,0.099588,-0.69118,0.40575,1.4514,-0.35952,-0.56359,-0.61461,-0.027987,0.073989,-0.10453,0.02298,-1.0993,0.38001,2.0379,1.2731,-0.66548,-1.2522,-1.5837,-0.5891,0.50762,-0.64034,0.78818,2.4463,0.48218,-1.1757,-0.86967,0.023023,0.38014,0.022845,0.45648,0.15043,-0.53793,-0.027724,-1.6091,-1.3287,-1.0227,-0.0535,0.68615,2.2931,1.1197,-0.43629,0.60959,0.73722,0.38024,-1.3798,-0.71652,-0.38502,-0.53816,-0.18128,-0.18097,-0.46146,1.6811,2.7777,0.50753,-0.64015,-1.992,-1.6349,-1.4563,-0.12982,0.86472,2.0122,0.71162,-1.2012,-0.10447,0.27815,-1.5328,1.3496,2.0638,1.0687,-0.053702,-0.3853,0.12519,-0.30856,-1.3033,-1.0482,-0.94603,-2.7062,1.0179,4.002,1.9614,0.76267,-0.86972,-0.94632,-0.81873,-1.2778,-1.4818,1.0435,1.8087,0.227,-0.64029,0.45658,-0.64007,-0.9971,-0.97166,-0.89511,0.073989,1.0177,0.278,0.023139,0.83923,-0.53815,-0.25751,1.5279,0.048512,0.60973,1.171,-1.2777,-1.0738,-0.71674,-0.84425,-0.028029,0.8903,-0.002448,-0.25754,-0.25753,0.96684,0.99232,-0.35957,0.20166,0.15057,0.63505,-0.079045,-0.53809,-0.1298,-0.79317,1.9358,2.5735,-0.92062,-1.2012,-1.0736,-0.92063,-0.86958,-1.9665,1.1199,1.8595,1.1197,2.2164,-0.053446,-1.5584,-1.9665,-0.58901,0.43121,1.0942,0.35422,-0.74218,2.1659,0.81391,-1.2267,-1.6348,-1.9665,-0.97171,1.1707,1.8338,0.81366,0.17601,-0.23204,-0.64002,-1.4817,-0.43585,1.6556,0.7881,0.25238,-0.48717,-1.0229,1.579,0.68644,-0.99708,-1.3797,-0.48702,0.81374,0.43086,0.022821,0.20152,-0.23199,-0.48691,-0.94606,0.50775,1.7063,0.48203,-0.15543,-0.12992,0.022998,-0.81858,-0.53805,-1.8134,0.1251,3.441,0.55857,-0.30864,-2.0685,-0.35952,0.71184,-1.839,-0.6402,1.4514,2.3952,0.94122,-0.92074,-1.1502,-1.3542,-0.58914,-0.30859,0.022986,1.0944,-0.35955,0.15059,1.3238,-0.18089,-0.33409,0.60968,1.3494,-0.48711,-0.64009,-1.2012,-1.1757,0.96677,1.1962,-0.61462,0.17607,0.73721,-0.48701,-0.58904,-0.69111,-0.35959,-0.41063,0.53323,0.83922,0.176,0.63522,1.1708,0.66064,-0.81885,-0.89523,-0.18089,-0.41046,-0.12991,-0.46154,-0.10449,-0.41055,0.17602,0.17603,0.17605,0.25258,0.38011,0.45657,0.89009,0.43116,-0.30836,-0.2319,-0.51252,-0.76762,-0.86978,0.81369,0.86475,-0.00254,-0.43615,-0.35945,-0.74211,0.048543,-0.25753,0.48216,0.5076,-0.81874,0.25258,0.30365,0.20166,0.38016,0.37998,0.074038,-0.64003,-0.79314,-0.56357,-0.51255,0.96675,1.1708,0.40569,-0.078898,-0.15556,-0.1046,-0.71668,-0.30852,-0.86974,0.71176,0.9924,-0.51258,-0.5382,-0.71675,-0.28291,1.0434,1.324,-0.48713,-0.6402,-0.99736,0.22707,0.43112,0.20151,0.71175,-0.02795,-0.30854,-0.28308,-0.56362,-0.10449,-0.12986,-0.61454,0.43112,1.2983,0.71161,-0.028066,-0.53797,-1.5328,-0.64012,0.15059,-0.41054,0.7627,1.2727,1.2727,-0.94622,-0.46156,0.023194,-0.51254,-0.92065,-1.2523,0.63518,1.6045,0.43099,0.48218,0.43118,-0.334,-0.97166,-0.053525,0.40556,-0.38506,-0.48706,0.55869,-1.4055,0.81379,3.084,0.86474,-0.94611,-1.5329,-1.5585,-0.97172,0.60972,0.45666,-0.13002,-0.33402,-0.53801,0.76275,1.0432,0.048543,0.2271,-1.2523,0.20172,2.2932,-0.002516,-0.41076,-1.1247,0.71165,0.25268,0.074038,-1.7625,-0.38508,0.27817,-0.53798,0.099613,0.023047,0.55842,0.48216,0.71182,0.25263,0.32905,0.30358,-0.07899,-0.97171,-0.12991,0.15067,-0.81854,0.074093,-1.6096,1.8848,2.9309,-0.48705,-0.64011,-1.3798,-1.0737,-0.71662,0.58414,1.4514,1.1706,0.17613,-0.69111,-0.69102,-0.92053,-0.69107,-0.66555,-0.99708,0.68616,1.2982,1.8847,0.68617,-0.56364,-0.46154,-0.51256,-0.81856,-0.002418,-0.43593,0.30358,1.3238,0.94099,-0.35945,-0.74209,-1.1247,-1.2522,-0.71668,0.43116,-0.43614,1.4259,0.45661,1.1199,0.43121,-0.25756,-0.053549,-0.76769,-0.76763,0.30359,0.40562,-1.6603,-0.20638,0.50786,1.5788,1.4768,-0.46172,-0.94615,-0.74211,-0.53809,-0.56366,0.53319,0.60963,-0.28318,1.7063,2.1145,-0.10452,-2.2469,-1.3797,-0.61448,-0.76752,0.048598,-0.15546,-0.38497,0.12504,1.2472,2.4203,0.45656,-0.002461,-0.25743,-1.2521,-1.6348,-0.69104,0.76291,-0.10435,0.81375,1.6552,1.5532,-0.20666,-1.8644,-2.3745,-0.56344,-0.002277,-0.53797,-0.71663,0.78813,3.0582,0.94117,-0.33395,-0.002332,-0.43609,-0.002472,-0.76765,-0.027956,-0.33402,0.073965,0.22697,0.073928,0.55877,-0.12996,-0.35953,0.66078,-0.002381,-0.86966,-1.5839,-0.18092,0.55872,-0.99735,-0.30864,1.3239,1.7575,-0.56362,0.1251,-0.69108,-0.66569,-0.28307,-0.41059,0.099552,0.66072,0.32922,-0.15547,0.50758,1.7574,0.022992,-0.89512,-0.76751,-0.97168,-0.079021,0.66061,-0.15562,0.76283,0.074038,-1.1502,-0.1554,0.66075,-0.30863,-0.53822,-0.23201,1.8085,0.66075,-1.0737,-0.58907,-0.28316,-0.33413,-0.9207,-0.027871,0.83938,0.66063,0.12505,-0.8441,-0.48705,0.023017,-0.078953,0.73732,0.15053,0.94119,1.4514,-0.38516,-0.43618,-0.38512,-0.56364,-0.38495,-0.71657,-0.23188,-0.53807,-0.86977,2.242,2.1401,-0.71669,1.1711,0.12513,-1.0992,-0.92074,-0.86967,-0.38509,-0.28305,0.27808,0.66069,0.50765,0.38009,0.099595,-0.078984,0.30361,-0.38508,-0.35951,-0.13005,0.27806,1.0943,-0.02792,-0.35956,-0.43596,-1.1248,-0.10446,0.099619,-0.35956,-1.2269,0.76259,0.89029,-0.23201,0.60968,-0.61457,0.17615,0.73725,0.50758,-0.61468,0.022968,-0.02792,-0.86966,-0.35951,-0.4105,0.25262,0.71168,0.27806,-0.33405,-0.20646,-0.43604,0.71166,2.0124,0.45649,-0.385,0.50779,-1.1502,-2.2215,-0.79308,0.4057,0.83924,-0.079124,1.4514,-0.48707,-0.58909,0.32908,0.40561,0.45664,-0.97169,-0.51259,0.50771,-0.66564,0.25264,1.2219,0.6097,-0.43619,-1.4566,0.43123,1.6301,0.22714,-0.79317,-0.079014,-0.41055,-0.76781,-0.4106,0.099637,0.45682,0.45673,-0.028042,0.73718,0.45662,-0.74223,0.63529,-1.1503,-0.9973,0.81375,0.45669,0.30364,-0.18104,-0.28309,-0.23202,-0.002454,-0.078886,0.27811,0.58409,-0.10455,-1.0738,-0.18098,1.1454,0.12528,0.35472,0.9413,0.099252,0.12493,-0.41058,-0.71665,-0.53798,-0.66546,-0.89506,-0.15549,0.68615,0.53298,0.86471,0.50749,0.25265,0.86491,-0.2064,-0.69108,-0.56361,-0.33405,0.53309,0.91548,-0.13014,-0.38494,0.96696,0.43128,-0.46157,-1.2012,-1.7114,0.91581,1.834,0.6096,-0.51275,-0.66576,-1.1502,-1.5328,0.60973,1.7064,-0.027931,-0.76764,0.45675,0.86494,-0.43606,-0.6147,-0.002565,0.55869,0.25259,-0.61474,0.50768,0.12505,-0.84416,-0.23196,0.2271,-0.33406,-0.64015,0.63526,0.35466,-0.20662,0.53315,0.45675,0.22699,0.94131,-0.23206,-1.1503,-0.41051,-0.58905,-0.66565,0.60968,0.023114,-0.12995,0.63519,-0.002448,0.9157,1.0942,-0.53818,-0.79318,-1.7114,0.32921,1.8086,0.58422,-0.46158,-0.41063,0.022937,0.48206,-0.76767,-1.0226,-0.23196,0.17609,0.1251,-0.5127,1.426,1.3495,1.1709,1.3493,-0.66581,-0.76773,-1.0481,-1.3031,-1.5073,-0.74211,0.43106,1.3748,1.7064,-0.1556,-0.10441,-0.436,-0.43606,-0.74209,0.53325,1.0177,0.50757,0.35446,0.40573,0.48227,-0.9462,-1.7623,-0.97172,-0.38507,0.99219,-0.027956,0.32903,0.91585,0.60956,0.20161,-0.69115,-0.74206,-0.74203,-0.28307,0.71161,0.25256,0.15063,-0.35948,-0.002516,0.73725,0.40559,0.15057,-0.86975,-0.053464,0.71173,0.15062,-0.05347,0.60971,-0.28309,-0.94616,-0.84409,-0.69116,0.12494,0.32874,0.78819,1.8852,-0.078763,-0.61454,-0.5635,-0.92071,-0.35961,0.83921,0.45666,-1.0737,1.0434,-0.002467,-0.079026,0.1504,-0.1557,0.15056,0.35472,-0.46164,1.1199,0.86475,-0.48694,-1.6349,-0.76764,0.048653,-0.56352,-0.69112,1.3238,1.0942,0.15044,1.2985,-0.79309,-0.81864,-1.2013,-0.28303,-0.028011,0.86472,0.76261,-0.002497,-0.66563,0.91581,-0.18092,-0.41048,-0.38503,-0.13017,0.12492,-1.1757,1.7832,0.71178,-1.4053,-0.56374,1.222,0.83926,-0.74213,-0.97179,-0.94623,0.3036,0.022961,0.94127,1.2728,0.81384,-0.41054,-0.28309,-0.71671,-0.9972,-0.61461,0.07416,0.4567,0.38013,0.35465,0.02298,0.73712,0.76254,-1.5329,0.96693,1.1966,-1.1757,-0.97164,-0.10444,0.048561,-0.58914,-1.0992,-0.053616,1.6553,1.9614,0.022992,-0.81865,-0.94619,-0.74208,-0.027815,-0.35948,-0.078923,1.4514,0.073977,0.022992,-0.10452,-0.079021,-0.58915,0.22713,0.099595,-0.181,-0.38502,-0.10447,0.27806,1.0432,1.4512,-0.84417,-0.79297,-0.20643,-1.0737,0.30364,0.20165,-0.38505,0.45663,-0.43609,-0.33405,0.66064,1.0432,0.73703,-0.66571,0.40565,0.22715,-0.71655,-1.2012,-0.97164,0.40567,1.579,0.023005,-0.053568,-0.35957,-0.9207,-0.58917,0.7372,0.32914,0.2271,-0.053451,0.20155,-0.66568,0.12502,1.6556,0.20165,-0.5381,-0.8187,-0.69117,-0.35961,-0.078928,-0.41058,0.60968,1.5278,1.0941,0.58411,-1.5582,-0.35935,-0.15523,-1.5328,-0.48708,1.7064,0.25233,-0.58922,0.4568,0.12511,-0.61467,0.099595,-0.15546,-0.20652,0.023023,0.048512,-0.38516,0.38015,0.07413,-0.13001,1.579,0.38021,-0.92072,-1.0993,-0.18094,0.43112,0.60968,-0.46166,-0.18113,1.5788,-0.385,-1.8388,0.2273,1.0179,-0.38504,-0.12998,0.099528,0.048427,0.048458,0.58419,-0.18107,-0.079057,0.099644,0.15051,0.02301,-0.38497,-0.61456,-0.46151,0.38017,1.1454,1.2984,-0.38509,-1.3289,-0.15548,0.71177,-0.20662,-0.13005,-0.58916,-0.079026,-0.078953,1.3494,0.073984,-0.28301,1.426,-0.58895,-0.58902,-0.64011,-0.25754,-0.2575,-0.3341,0.38003,0.53307,-0.92074,0.2015,0.81378,0.45665,0.099564,-1.1757,-0.51257,0.78826,0.76275,-0.33399,-0.20651,-0.20653,-0.23198,-0.28303,-0.053525,-0.38511,0.0741,0.71173,1.0178,0.12489,-0.15554,0.12503,-0.41051,-0.053366,-0.18091,-0.385,-0.71677,0.63525,0.60971,-0.23196,-0.30852,-0.10456,-0.10462,0.43106,0.38006,-0.13001,-0.66558,-0.1809,1.3495,-0.64008,0.176,0.15049,0.048469,-0.51254,-1.0227,0.4568,0.55875,0.3291,-0.15556,-0.18106,0.32908,-0.25754,-0.33405,-0.79314,-0.078941,1.1454,0.76266,-0.078892,-0.23203,0.48209,0.15048,-0.97173,0.023108,-0.053451,-0.64012,0.30369,0.58425,-0.51269,0.38006,0.66079,-0.64015,-0.5638,0.35456,0.0741,-0.25749,0.25263,0.25268,-0.23199,-1.0227,-0.2319,0.25268,0.27802,0.63506,0.76269,-0.53813,0.22707,0.20155,0.048445,0.15052,-0.64003,-0.94612,-0.51254,-0.51257,0.50768,0.68632,1.2474,0.43099,-0.15562,-0.51259,-1.0993,-0.15552,-0.43607,-0.25746,1.6556,1.2983,0.20141,-0.48708,-1.3543,-0.53801,0.15071,-0.61454,-0.33406,0.43112,0.27807,0.76261,0.58413,0.25256,0.48222,0.27808,-0.94615,-1.1757,-0.58905,-0.23193,0.12512,0.17601,-0.43622,1.63,2.1655,0.73713,-0.99722,-1.3798,-1.4053,-1.0736,-0.35949,0.074069,0.76278,0.94113,0.53317,0.15057,-0.181,-0.56361,0.50767,0.27812,-0.25759,-0.53814,1.2983,0.78835,-0.92065,-0.56363,0.4311,-0.69113,-0.94619,1.0178,1.3748,-0.28308,-0.76765,0.074173,0.58426,0.15064,-1.5073,0.022974,2.14,1.4767,-0.94625,-1.2778,-0.10439,-0.23188,-0.12988,-0.28302,0.048573,0.53313,0.8646,0.27802,0.58411,-0.33401,-0.92058,0.50779,0.60974,-0.86972,0.73733,0.40565,0.17603,-0.84432,-0.15556,-0.53809,0.099619,0.12501,-0.028158,0.15059,-0.71652,0.7118,1.6555,-0.078917,-0.9462,-0.30865,1.0179,-0.81862,-0.23193,-0.28305,-0.48719,-0.028109,0.96663,-0.35946,-0.74218,1.4003,1.1198,0.60987,-0.20638,-0.20635,-1.0992,-0.71658,-0.13009,0.12485,-0.51266,0.20161,0.22711,0.63513,-0.20638,0.96693,0.86478,0.073855,-0.69116,-0.6146,-0.30847,-1.5073,-2.5531,2.7779,1.3239,0.48203,0.099503,-0.84423,-0.94629,0.35465,0.66074,-0.053439,-0.46162,0.96672,0.15056,-0.23195,-0.48695,-0.79313,-0.61465,-1.1503,0.89026,1.0942,1.6554,1.3493,-0.51254,-1.0227,-1.5073,-0.99713,0.35469,-0.76764,-0.053525,1.5024,1.0687,0.048585,-0.20646,-0.20653,0.25261,-0.94623,0.048555,0.58425,0.15056,-1.1504,-1.4819,1.528,0.38023,1.4258,0.99218,-0.51276,-1.6094,-1.0992,-0.64001,-0.12988,-0.12999,0.12501,0.63521,0.73733,0.53318,0.15039,-1.0228,-0.23204,1.2728,0.63525,-0.43601,-0.79311,0.7118,0.9922,0.17601,-0.33413,-1.1249,-0.027969,0.17612,-0.48704,-0.078928,-0.28297,-0.25755,0.76286,1.0434,0.35448,0.7625,-0.66566,-0.94617,0.43123,0.023121,-0.027895,-0.12991,-0.23201,-0.5382,-0.33413,0.35456,0.89023,2.0125,0.20159,-1.3543,-1.3031,-0.79307,-0.89519,0.22706,0.4056,1.9361,0.73726,0.66069,-0.13004,-1.3543,-1.0482,-0.79316,-1.4309,-0.46165,2.5737,1.885,-0.81871,-0.74211,0.048598,0.048573,-0.81861,-0.51259,-0.61458,0.17616,-0.53817,0.37997,2.2165,-0.41058,-0.41049,1.426,-0.30847,-1.9154,0.2782,0.53307,0.022907,-1.2523,-0.10459,1.3239,1.1199,-0.99711,-0.7676,-0.9972,-0.51255,-0.027993,2.9307,1.5788,-0.2576,-0.7166,-0.002314,-0.66562,-1.3544,0.25263,0.20166,-1.3797,-0.053616,2.7777,1.5277,-0.8442,-0.97166,-0.81852,-2.2725,-0.33387,0.12527,-0.002454,-0.10458,2.1653,2.7011,0.30353,0.099619,-0.61463,-0.7421,-2.8337,0.53336,-0.51233,-0.002497,1.8083,3.0324,-0.94616,-1.5583,-1.5583,0.22728,-0.25743,-0.38507,0.30349,1.4769,0.78821,0.43108,1.1454,-0.7167,-1.2778,-0.33401,-0.38505,-0.56356,-0.56359,-0.20653,0.50767,0.96676,0.38002,0.43104,0.94134,1.528,-2.0431,-1.6093,0.15073,-0.92063,2.3443,1.9616,-0.38508,-0.28338,-0.6915,-2.0686,-1.5072,-1.7623,-0.053378,2.3698,2.2166,1.2728,0.83906,0.43112,-0.46157,-0.56356,-1.3798,-1.6348,-1.0737,-0.76771,-0.13016,1.7829,0.9923,1.63,0.0741,-0.64006,-0.66558,-0.97171,-0.84419,1.9617,0.96679,0.50743,-0.053562,-0.48692,-0.30856,-0.002503,-1.0483,0.48228,-0.41047,-0.46153,-0.028042,-0.43621,-1.7625,0.78824,4.3338,1.7319,-0.56369,-0.71656,-1.1756,-0.64005,-1.9155,-0.002461,1.1708,0.30357,0.91584,-0.69118,-0.89527,0.35468,0.048641,-0.7167,0.022961,-0.4362,1.1708,0.96675,-0.53816,-0.58908,-0.487,-0.53811,0.45665,-0.46153,-0.56358,0.073917,1.4004,0.66075,-0.99716,0.53332,-1.0482,-0.81869,-1.6351,0.58413,0.12518,2.4463,2.1656,0.37979,-0.56358,-1.5327,-0.76756,-0.38506,-0.56365,0.2526,-1.0738,0.20157,0.40576,0.17614,2.4208,0.1759,-0.23213,0.73725,-0.79319,-3.0123,-1.4818,0.99253,2.0637,2.1144,0.63493,-1.3543,-1.5328,-1.2777,-0.81859,-0.28302,0.66062,0.60957,0.43113,1.2473,1.5278,0.048616,0.15074,-1.0737,-2.2471,1.8596,1.1962,0.25262,0.12502,0.17592,-1.8899,-0.38489,-0.25746,-1.2267,0.4312,0.83924,-0.64027,0.22701,1.4259,1.2984,-0.61464,-0.71666,-0.61463,0.30353,1.069,0.40575,0.68624,-1.1248,-1.2267,-0.28303,1.1197,-0.30877,1.6298,1.1455,-1.8133,-0.7166,-0.41045,0.55879,0.91579,-0.25766,-0.53842,0.50743,0.023145,-1.4307,-1.3032,-0.12989,0.35475,0.32919,1.5024,-1.5841,2.5225,3.339,-0.028194,-3.0633,-1.2522,0.30379,-0.94609,-0.97168,0.20153,0.60951,0.94114,-0.41055,-0.10449,-0.02795,0.073946,-0.33395,2.0638,0.73742,-0.66573,-0.13003,-0.58913,-1.1503,1.5025,0.60963,-0.48716,0.17605,0.2016,-0.028023,-1.0993,-0.38521,-0.053488,-0.43595,-1.5838,-0.53798,3.1861,0.50766,1.1198,0.53316,-0.79331,-0.66582,-0.89521,-0.51255,-0.41046,-0.86955,0.099528,1.9869,1.1196,-0.002558,-0.81865,-0.538,-1.0481,0.71188,-0.4106,0.83923,0.20161,0.12513,0.9412,-0.89536,0.073861,-0.46159,-0.41056,1.1455,-1.1246,-0.053397,2.0127,-0.86987,-0.64032,1.1962,-0.74211,-0.15549,0.48229,-1.1502,-0.20638,0.96683,-0.28303,-0.23212,0.12499,0.78804,0.27812,0.073928,1.4769,-1.6604,0.35479,1.1454,-0.76761,0.20167,-1.2014,-1.2523,-0.5637,-0.078923,0.81375,1.6554,0.099345,-0.028109,-0.10432,-0.15534,0.40572,-0.9207,-0.56351,0.30364,0.73718,0.81351,-0.002516,0.1251,-0.81859,-0.56354,-1.0227,-1.2269,2.2421,2.3952,-0.10452,-0.56367,-0.12997,-3.1398,-0.079033,2.8799,-0.64007,0.48225,0.76276,-1.9411,-1.788,0.63519,0.78819,0.38003,-1.0482,0.22723,1.273,-0.12999,-0.79327,0.96683,0.86487,-0.48708,-1.3288,-0.61455,1.4514,0.60946,0.45644,-0.33402,-0.48697,-1.2013,-0.002265,-0.74211,-1.0992,-0.30856,2.8288,0.55867,-0.15551,0.048415,0.22691,0.32899,-0.28314,0.1251,-0.74206,0.4823,0.58433,-0.94609,-0.25756,0.022931,-0.028139,0.09954,0.7628,0.76289,-0.12995,-0.20652,-0.25745,-0.30864,0.38001,-0.53825,-0.28316,0.91575,0.30373,-2.8337,0.35483,1.5791,-0.002394,-0.28308,-0.25762,1.6808,0.584,0.12496,-0.94606,-1.0736,-0.002356,-0.12988,-0.9207,0.40562,1.2728,-0.002485,-0.053482,-0.56366,0.22706,0.48222,-0.46153,-1.7624,2.0127,1.4004,0.71155,-0.10481,-0.30848,-2.2215,-1.4563,-0.078861,0.43118,-0.5125,-0.20649,0.35452,1.4767,1.0177,-0.38502,-0.053372,0.68632,0.45671,-0.74211,-1.3032,-0.20646,0.32907,-0.028018,-0.15558,0.099521,0.81365,-0.1557,1.3493,0.76288,-1.0225,-0.81852,-0.58908,-0.25738,-0.81879,-1.5841,1.9106,1.2473,-0.76782,0.09965,-0.53803,0.53326,0.63518,-0.71679,-0.13009,0.58407,0.66073,-1.0737,-0.94612,-0.12982,-0.15546,-0.053458,-0.53814,0.048463,1.3493,0.8902,0.30364,-0.66562,-1.8389,1.1965,1.2219,-1.4054,-0.13006,0.099528,0.022852,0.71165,-0.10445,-1.2267,-0.89508,-0.33387,-0.33401,-0.053488,2.1656,1.0177,0.1504,-0.38517,-1.8135,-0.66562,2.829,-0.15541,-1.1502,-1.5074,-0.58901,1.1707,1.2726,0.839,-0.76752,-0.23177,-0.69097,-1.1756,-1.5328,0.68618,1.2727,0.94114,0.71157,-0.20657,-0.02795,-1.2013,0.86491,-0.10441,-0.002448,-1.1247,1.2219,2.3697,-0.13011,0.17597,-1.0482,-2.043,0.30374,0.78835,-0.3086,-0.53833,-0.35962,-0.7932,0.074142,-0.078794,-0.46152,-0.15545,0.22713,0.20167,0.58419,0.50757,1.5788,0.66059,-1.2524,-0.8442,-0.053439,1.3751,1.0945,-1.5585,0.7626,0.20156,-1.3032,-1.3798,-1.4053,-0.12995,0.5333,-1.4819,0.43108,3.2369,1.1453,1.3494,-1.7371,-0.18095,-0.41044,-1.3287,-0.66546,-2.2981,1.3237,5.0478,0.71168,-0.35953,-1.4308,-2.0175,-1.7369,-0.84417,-0.97168,1.324,-0.079045,1.1452,1.1709,0.9412,-0.078959,-0.18105,-0.1555,-0.5126,-0.12997,-0.18097,0.17606,0.20159,-0.20648,0.048634,-0.66565,-2.1196,1.4515,2.8034,-0.053544,-0.35977,-0.74228,-0.4105,-0.97161,-0.84404,-0.71668,0.17604,3.3134,0.48219,-1.1758,-0.92068,0.17605,-0.027931,-2.2726,1.7576,1.834,-0.94628,-0.35952,0.78824,0.048378,-0.20656,-0.79312,-0.81869,-1.2778,1.4515,-0.25751,0.9414,2.6504,-0.30868,-1.2014,-0.9717,-0.48711,-0.97175,-0.027993,1.477,-0.078935,-0.71666,-0.23206,0.58422,0.3036,0.17603,0.12504,-0.02792,-0.33412,0.38008,0.17605,-0.30855,-0.81861,0.68636,-0.23204,-1.9156,1.2729,3.0075,0.63513,-1.5584,-2.0175,-0.53815,0.68621,0.22705,-1.2523,-0.4105,0.91575,1.3493,1.5788,0.023139,-1.4818,-1.0737,0.023072,-0.10447,0.22705,0.20153,0.38018,0.48214,0.15051,-0.28308,0.32922,1.6045,0.38006,-0.86977,-0.97175,0.15054,0.66074,-1.2523,-0.18097,-0.38503,-0.002412,-0.38513,0.53312,0.81373,-0.46161,0.55869,0.48219,0.099552,-0.33404,-0.002418,0.20162,-1.5584,0.86474,0.48209,0.35458,-0.25753,0.43118,0.78835,-1.7368,-0.76764,-0.35967,-0.079039,-0.43611,-0.002448,1.0434,0.55872,0.32903,-0.71665,-0.79314,0.53321,1.63,-0.18108,-0.23213,-0.58916,-0.30841,-0.002332,-0.2576,-0.30868,-1.278,3.0073,3.1861,-0.9716,-1.8644,-1.5074,-0.66573,-0.5127,-0.5892,0.38017,0.60969,0.40568,0.94137,0.45659,-0.66565,0.12516,0.66069,0.73709,-0.97179,-0.20646,0.86491,0.6352,-0.99726,-3.1398,1.7576,1.63,-0.51266,-0.28302,1.2984,-1.5074,-1.431,1.2219,1.3749,-0.053568,0.38006,-0.48708,-1.0992,-0.30841,0.35472,-0.15551,0.12509,0.30361,-0.6401,-0.23203,0.227,0.15049,0.2015,0.22712,0.32918,-0.2319,-0.94613,0.35459,0.17611,0.20159,-0.48714,0.30358,-0.43607,-0.48705,0.58424,1.0689,-0.84424,-0.2576,0.66077,-0.79321,0.25254,0.48211,0.023114,-0.33402,0.17607,-0.18095,-0.20658,0.32913,0.43127,-0.81863,-0.078984,0.6861,0.48215,-0.46169,-0.23199,0.22723,-0.33405,-0.56359,0.76272,-0.2831,0.35459,0.89033,-0.13001,-0.8442,-0.078996,0.20167,-0.25753,0.3037,0.3035,0.30341,-0.81872,0.5078,-0.20648,-0.35947,0.20158,-0.053537,-0.58905,-0.84414,0.048573,1.579,0.45666,-0.35967,1.0942,0.3545,-0.027962,-0.28293,-0.58907,-0.61456,-1.0227,0.099613,0.50762,1.3494,1.2473,0.48212,-1.6094,-1.7113,0.25259,0.25252,0.25249,0.17609,-0.86974,0.91579,1.171,-1.2013,-0.81875,-0.053378,-1.1247,1.1709,1.3238,-2.3749,-0.74221,4.0023,2.1401,-0.38511,-2.0431,-1.6859,-1.8134,-1.3798,-0.71657,0.55869,1.3237,0.76266,0.58414,0.02309,-0.02784,-0.7422,0.3036,0.86488,0.83928,-0.35966,0.25246,-0.86969,-0.69107,-1.3798,0.50771,0.76274,-1.0228,0.9413,0.48213,-0.38524,-0.43612,0.55882,0.20167,-0.53812,-0.69113,-0.23194,-0.38502,0.27809,0.3291,0.73721,-1.0738,1.7064,1.4514,0.20148,-1.4818,0.12511,0.45669,1.0432,-1.6603,-1.1501,-1.2777,-1.2268,0.15057,2.3442,0.76278,-0.28318,-0.13012,-0.33416,0.20164,1.1199,0.43118,-0.71661,-0.46166,0.32893,1.0177,-0.64007,-0.76755,-0.58896,-0.43597,-0.078953,-0.48712,0.22707,1.1197,2.1146,0.6352,-0.64008,-1.2267,-0.99721,-0.71671,0.30358,-0.15552,-0.181,-0.79326,1.0943,1.375,-0.6146,-1.0482,-0.18095,2.2932,1.1708,0.15059,-0.33406,-0.51262,-0.69122,-1.3288,-1.8645,0.71181,2.3443,-0.35956,-0.28309,-0.38513,0.43114,0.023059,-0.23213,1.4768,1.0687,-0.58908,-0.66556,-1.5073,-0.84415,0.32909,0.6607,0.30361,0.048598,-0.69112,-0.002577,2.1655,0.7372,-0.99718,-1.0992,-0.76765,-0.64009,-0.64019,0.53312,0.20153,1.8085,1.1453,0.50775,-1.89,-0.18088,-0.027889,-0.46164,-0.25754,0.022931,1.3747,1.0431,0.22713,-0.053293,-1.8642,-0.027638,-0.46159,0.48192,1.5277,1.7575,-0.53803,-0.8951,-1.1248,-0.99723,-0.53806,-0.51254,0.53317,1.0431,0.50744,0.35449,0.55872,0.68634,-0.99707,-0.844,-0.43595,-0.20654,-1.0485,1.1198,0.89042,-0.002461,0.38009,-0.51274,-0.64016,-0.053409,-0.74212,-0.76772,-0.5892,0.38011,1.477,1.1964,-0.33402,-0.10455,0.32902,-0.33406,-0.20653,-0.48702,0.25265,0.15061,-1.1246,0.4822,0.99232,0.45656,-0.46158,0.12498,-0.33411,-1.992,1.0179,2.5228,0.48211,-0.74225,0.099521,0.20158,-1.5329,-0.078879,0.50774,-0.46161,0.43109,0.1251,-0.84411,0.78827,0.73709,0.81357,-0.41049,-0.48703,-0.69105,0.25267,-0.13,1.1453,0.30369,-0.33411,-0.38513,-0.002546,-0.33399,0.30369,-0.20644,0.30362,-0.30865,-0.33416,1.7576,0.83918,0.43105,-1.1758,-1.7113,-1.3797,-0.38494,0.023023,0.15048,-0.51265,0.94126,2.1403,0.22705,0.63511,0.86472,-0.053519,-0.71664,-0.92065,-0.86964,-1.3033,0.9923,0.45659,0.12504,-0.002467,0.15055,0.17617,-0.51255,-0.58903,-0.25748,-0.71672,0.58407,1.1197,1.2217,0.89035,-1.2522,-0.53803,-1.0992,-0.64001,0.55874,0.023041,-0.38506,-0.15562,0.15047,0.76271,0.58419,0.53312,-0.25751,-0.28294,-1.1758,0.68632,1.0179,-0.053531,-0.76773,-0.079002,0.73724,-0.48706,-0.79316,-1.0738,-0.28311,1.2729,1.1198,0.40554,0.32905,-0.33411,-0.48697,-1.4819,0.27822,1.3241,0.20154,-0.002534,-0.027987,-0.4106,-0.71676,1.4768,0.78831,-0.30849,-0.89502,-1.1502,0.86473,1.2218,-0.53812,-0.43607,-0.43612,-0.86971,-0.20655,0.71171,1.2985,0.66077,-0.28304,-0.10462,-0.35954,-0.46159,0.022998,0.32908,-0.51268,0.30362,0.55888,-0.43597,-0.079008,-0.51258,-0.46165,-0.38519,1.3494,-0.053427,-0.48714,0.43127,0.12516,-0.41051,-0.10456,-0.15567,-1.2014,-0.48705,-0.33397,-0.12998,3.4155,0.73721,-0.84419,-0.35954,0.40564,-0.64015,-0.69119,-0.7422,0.55864,0.89023,-0.33411,0.27832,-0.6145,-0.20649,0.68602,-0.35964,0.30369,0.43116,-0.078984,0.27805,0.048512,-0.15543,-0.71649,-0.20641,-0.002374,0.022992,1.0175,1.043,0.5331,-0.33392,-1.0226,-0.74198,-0.538,-0.7166,-1.3289,1.4769,1.6044,0.176,0.2781,0.099577,-0.74218,0.20159,0.27813,-0.9463,0.58414,0.83912,-1.1502,0.25276,-0.33401,-0.43604,-0.43602,0.32918,0.4822,-0.027895,0.023096,-0.30866,0.68612,1.4512,0.81369,0.32909,-0.5381,-1.6093,-0.00235,1.0435,-0.25754,-1.0228,0.30351,-0.41061,-0.66566,1.7576,0.9413,-0.4361,-0.74209,-1.3543,-0.15556,1.4768,-0.13007,-0.43607,-0.20644,-0.15545,-0.38503,0.50762,0.35469,0.099559,0.25254,0.073989,-0.079008,-0.078959,-0.002443,-0.33404,-1.0481,-0.053402,1.8595,0.9921,-0.002588,-0.81878,-2.1195,-0.078874,2.2424,-0.487,-0.41058,-0.56366,0.073861,0.38006,-0.30853,-0.41055,-0.18102,-0.33403,-0.20658,1.5535,1.1964,-0.181,-0.84412,-0.79315,0.35467,-0.078917,-0.35953,-0.18103,-0.002565,0.50753,0.60947,-0.13002,-1.4308,1.069,1.4516,-1.0226,-0.25749,-0.18098,-0.053506,-0.33412,-1.3034,0.25255,0.40564
