-0.35956,0.27811,-0.002472,-0.18097,0.30361,-0.18095,-0.20649,0.023047,-0.053525,0.12502,0.099559,0.023041,-0.002467,0.074081,-0.10447,-0.078966,-0.027931,-0.053495,0.20153,0.099528,0.023017,-0.002467,-0.027962,-0.002472,0.074093,0.023059,-0.053458,-0.053464,-0.002516,-0.053476,0.023035,-0.027974,-0.002443,0.074051,-0.002448,0.17609,-0.053476,-0.12998,0.27806,-0.002497,-0.027962,0.048531,-0.078959,0.023041,-0.002461,-0.10446,-0.12997,-0.12998,0.048506,0.074013,-0.053482,0.17607,0.048549,-0.078953,-0.12998,0.074057,-0.02795,-0.002497,0.27805,-0.079014,0.02301,-0.05347,0.048567,-0.002436,-0.027931,-0.078953,0.023047,0.023047,0.048487,0.099534,-0.002467,0.12504,0.074062,-0.15547,0.023054,-0.027944,-0.12998,-0.078972,0.099546,-0.002497,0.12504,0.17607,0.074038,0.023059,0.048585,-0.10447,-0.12996,-0.027969,-0.002516,0.12503,0.048531,0.099528,0.048555,-0.078959,-0.078953,-0.078947,-0.078984,0.099546,0.15054,-0.002497,0.023041,-0.05347,-0.027969,-0.002436,-0.02792,-0.10447,-0.10445,-0.07899,0.073995,0.074026,-0.053495,0.074051,-0.15547,-0.002443,0.023065,-0.002472,0.048555,-0.07899,0.099515,-0.02798,-0.027969,0.023035,-0.02795,0.048561,-0.027938,-0.05347,-0.002436,0.023017,0.074013,0.099521,0.048531,-0.002467,-0.078972,-0.078947,0.099564,-0.12996,0.2271,-0.12999,0.1505,-0.027987,-0.002491,-0.002472,-0.027969,0.048573,-0.078966,0.023065,-0.053433,-0.027993,0.099534,0.099528,0.074038,0.074057,-0.027969,-0.053427,0.048561,-0.053458,-0.078966,-0.027993,0.20155,0.0485,0.048531,0.023035,-0.078972,-0.027925,-0.12999,-0.027925,-0.053458,-0.002472,0.048506,0.048518,-0.002479,0.074044,0.048555,-0.027944,-0.027938,-0.10446,-0.053433,-0.002485,0.22705,0.048506,-0.002467,0.074026,0.023047,-0.002461,-0.053446,-0.15549,-0.10444,-0.10449,0.12503,0.09951,0.20157,0.023035,0.074062,-0.053451,0.048555,-0.10445,-0.20649,0.048536,0.25256,0.12503,-0.002461,-0.053482,0.12508,-0.078959,0.048543,-0.078953,-0.078972,0.074051,-0.028005,0.048518,-0.002461,-0.053476,0.023059,-0.078972,-0.078959,-0.10446,-0.002461,-0.053476,0.22702,-0.0535,0.023017,0.25263,-0.1555,-0.002418,-0.002461,-0.15548,-0.027969,-0.053482,0.0485,0.17604,0.048525,0.048549,-0.053464,-0.053446,-0.002436,-0.027944,-0.10448,0.023029,0.17603,-0.028005,-0.002448,0.048536,-0.053458,0.12507,0.023059,0.12507,-0.12996,-0.002479,-0.002497,0.12504,-0.027969,0.09954,-0.02795,0.023059,-0.12997,-0.002454,-0.053439,0.023023,0.09951,0.099521,-0.002461,0.048543,-0.053458,-0.002436,-0.15548,0.074087,-0.027969,-0.12998,0.15052,0.048525,0.12504,-0.002472,0.048561,-0.18098,-0.002436,-0.053451,-0.027956,-0.1045,0.22703,-0.053513,-0.027969,-0.002472,-0.002436,0.023054,-0.00243,-0.078977,-0.027925,-0.053495,0.048518,0.074008,0.099546,0.023035,-0.002479,0.2271,0.074087,-0.078984,-0.12996,-0.18101,0.099503,-0.02798,-0.02798,0.048555,-0.05347,0.048561,-0.00243,-0.002467,-0.002443,-0.078996,0.12501,0.074044,-0.10449,0.074057,-0.12998,0.048549,-0.027944,-0.078972,0.048549,-0.053464,0.048518,0.023035,-0.002461,-0.027974,-0.027974,0.048567,0.023029,-0.078959,-0.078959,-0.13,0.048518,0.023029,0.099534,-0.002467,-0.027969,0.20161,0.074044,-0.12998,-0.12999,-0.05347,-0.10451,-0.13,0.074057,-0.05347,-0.078984,0.048585,-0.078959,-0.027956,0.12508,-0.10449,-0.028036,0.20156,-0.002461,0.099528,0.048536,-0.002448,-0.1555,-0.10443,0.023084,-0.12998,-0.027993,-0.053519,0.023041,-0.18105,0.099546,0.17612,-0.027962,0.023072,-0.053433,-0.002485,-0.20654,-0.05347,0.074038,0.023035,0.30357,0.43117,0.023029,-0.20649,-0.33399,-0.33406,0.099546,-0.4106,0.45667,0.32909,-0.10449,-0.027969,-0.12997,-0.078953,-0.02795,-0.25757,-0.18106,0.25256,0.60967,0.17607,0.15057,0.20163,-0.46155,-0.20646,-0.35949,0.099577,-0.027969,-0.15555,-0.10454,0.15052,0.22704,-0.027925,-0.10447,-0.002412,-0.027962,-0.079008,0.022998,-0.053506,0.099588,0.22711,-0.002436,0.17611,-0.2575,-0.20647,-0.079014,-0.002491,0.17603,-0.028011,-0.053488,-0.0535,-0.10449,-0.15549,0.43117,-0.23198,-0.027931,-0.002467,-0.35957,0.20157,0.099559,-0.10452,-0.12999,-0.002448,-0.027938,-0.078972,0.40571,-0.002497,0.099491,0.0485,0.074013,0.074075,-0.1555,-0.28302,-0.053433,0.32917,-0.35953,-0.07899,0.048482,-0.002479,-0.002485,0.27808,0.43115,-0.053458,-0.053446,-0.18099,-0.23199,-0.38505,0.15054,0.15056,0.58418,-0.4616,-0.053488,0.25262,-0.20648,-0.05347,-0.23198,-0.10449,0.12501,0.27805,0.074044,-0.002485,0.074057,-0.027944,-0.181,0.20163,-0.41057,0.09957,0.5332,-0.38511,0.023017,0.30359,-0.053488,-0.078966,-0.43609,-0.8442,0.55874,0.71176,0.30361,0.12502,-0.23205,-0.20653,-0.027969,-0.2065,-0.002443,-0.2065,-0.078966,0.25261,-0.078996,-0.078996,-0.20658,0.25257,0.66075,-0.079039,-0.10444,-0.28298,0.15059,0.12502,-0.20655,-0.18098,-0.13002,-0.002454,-0.078972,0.048567,0.099577,0.35462,0.22706,0.048506,-0.079021,-0.28303,-0.4106,0.38016,0.099564,-0.48711,-0.2575,0.45669,0.94136,0.48214,-0.46164,-0.64018,-0.10451,-0.1045,-0.5636,0.048573,0.63524,-0.15548,-0.078966,0.2016,0.073995,-0.053482,0.048512,0.074044,-0.002485,-0.02792,-0.002443,0.023059,-0.28298,-0.002491,0.099521,0.15054,0.38008,0.099521,0.22703,-0.20645,-0.41049,-0.30843,-0.3595,-0.12996,-0.053531,-0.002521,0.25259,0.38011,-0.30859,0.0741,0.30363,0.30363,0.12506,-0.15554,-0.053544,-0.64017,0.48222,0.1251,-0.46156,-0.23203,-0.20649,0.15063,0.12507,0.20159,-0.28311,0.8393,-0.15554,-0.027998,-0.078996,-0.61467,-0.002472,0.45669,-0.35953,-0.30855,0.074069,0.074044,0.2271,0.12503,-0.15549,0.12506,0.048543,0.099552,0.12509,-0.1045,-0.30858,0.048549,0.25262,-0.15549,0.15059,0.099588,0.023035,-0.28303,-0.10447,0.17604,-0.23205,-0.43609,-0.053451,0.89026,-0.002491,0.20161,-0.35954,-0.12995,-0.33401,-0.10452,-0.25761,0.074033,1.0944,-0.13001,0.78825,-0.43604,-0.69116,0.12513,-0.232,0.20156,0.38009,-0.053464,-0.41057,-0.12998,0.22709,-0.078941,-0.002467,0.25262,0.25255,-0.51257,-0.053506,0.099583,0.12503,0.25259,-0.28305,0.73725,0.17608,-0.15549,-0.51255,-0.25752,-0.4361,0.17606,-0.002479,0.12505,0.023017,0.12513,-0.20651,-0.12995,0.1506,-0.079026,-0.002503,-0.002528,0.17611,-0.15551,-0.43609,1.3494,-0.51254,-0.18099,-0.71667,0.12502,0.89026,0.27806,-0.69115,-0.66566,-0.18103,-0.027931,-0.027925,0.17609,0.074093,0.22707,0.17602,0.048531,-0.002454,0.04858,-0.20646,-0.10444,-0.23205,-0.078959,0.074038,0.176,-0.20656,-0.15548,0.048543,-0.053488,-0.002467,-0.002423,-0.053482,-0.43601,0.94134,-0.56362,0.25257,-0.13002,-0.078977,0.73725,-0.89525,-0.38503,-0.28305,0.27811,-0.15551,-0.053513,0.27808,-0.02798,-0.10451,0.4822,0.38016,-0.12998,-0.33405,-0.002374,-0.64016,-0.53814,0.96679,-0.30856,0.32913,-0.13001,-0.18103,0.074044,-0.07899,-0.2065,0.0741,0.09957,-0.15554,0.35461,0.15057,-0.10452,-0.078966,-0.33403,0.30361,-0.05339,-0.30853,-0.33406,0.30358,-0.20654,-0.3341,0.30357,0.17609,0.09957,-0.20651,0.099577,0.66077,-0.69119,-0.18101,0.048555,-0.13001,-0.053519,-0.20652,0.40567,-0.002423,-0.79317,0.074081,0.30361,-0.053519,-0.002454,-0.079021,0.58423,0.12504,0.048561,-0.6402,0.35465,-0.12995,-0.002448,-0.13001,-0.30856,-0.25753,0.20155,0.35465,0.3291,-0.20648,-0.002418,-0.15551,0.048506,-0.25757,-0.15549,-0.20653,0.32915,0.43113,-0.053458,-0.56358,0.1761,0.20162,0.074044,-0.18108,0.023029,-0.38507,-0.18099,0.20159,-0.027969,-0.25753,-0.078984,0.68628,-0.51263,-0.28309,-0.28304,-0.002467,0.023041,-0.053476,0.60975,0.66077,-0.35955,-0.181,-0.25754,0.099503,-0.48713,0.023035,-0.28302,-0.12998,0.40565,-0.078972,0.25265,0.074093,-0.28306,-0.33412,-0.002467,-0.10451,0.45663,-0.12998,0.27814,0.17609,-0.25749,-0.25757,0.074057,0.07402,0.048536,-0.23204,-0.51263,0.50771,0.38016,-0.13001,-0.10443,-0.027969,-0.33408,-0.053519,-0.46159,0.22706,-0.002521,0.22712,0.048561,-0.053482,-0.027956,-0.38504,0.89031,-0.18106,-0.23203,-0.078996,-0.027962,0.20159,0.17608,0.12505,0.02309,-0.43609,0.074038,0.074038,-0.079021,-0.15553,0.45667,0.30368,-0.33404,-0.41055,-0.10446,-0.30854,-0.15553,0.81373,-0.002479,-0.12998,-0.10448,0.023054,0.023047,0.17604,0.25261,-0.05347,-0.30858,0.048487,0.43115,0.04858,-0.35953,0.099583,-0.64012,0.20163,-0.10444,0.02309,-0.58917,0.32907,0.58414,-0.28309,-0.35957,-0.28303,0.55873,-0.027938,0.048573,-0.10447,-0.10452,-0.20653,-0.027969,-0.027998,-0.69118,0.50769,1.1199,-0.18101,0.25262,-0.07899,-0.61468,-0.23204,-0.43611,-0.12999,-0.20655,0.35465,-0.2575,0.48222,-0.027956,0.023035,0.25259,-0.15553,-0.0535,-0.10454,-0.46153,-0.002436,-0.10448,0.5332,-0.35957,-0.12999,-0.18103,0.15052,0.35462,0.074013,0.048555,0.12505,0.074106,-0.48708,-0.15543,0.30366,-0.43615,0.5077,0.22706,0.94126,-0.46165,-0.53814,-0.38503,0.023108,-0.25751,-0.33401,-0.15553,0.50769,0.53314,0.17606,-0.027987,-0.15547,-0.00243,-0.30854,0.09954,-0.33407,0.074033,-0.079002,0.048531,-0.13001,-0.002423,0.099577,-0.28306,0.35463,0.89033,-0.33405,-0.38511,-0.41063,-0.10449,0.48219,-0.33403,-0.181,-0.002479,-0.20654,0.17613,-0.10452,0.45665,-0.13004,-0.13002,-0.07899,0.023041,0.023103,0.66076,-0.86972,0.76279,0.074044,-0.7932,0.48214,0.17609,-0.41061,-0.61464,-0.12996,-0.10452,-0.20647,-0.02795,0.04858,0.32905,0.48215,-0.23206,-0.053525,0.6607,0.68626,-0.23196,-0.64009,-0.46154,-0.30851,-0.053495,-0.30863,0.89022,0.99232,-0.02798,-0.18098,-0.23201,0.89029,-0.64012,-0.15552,-0.05347,-0.15553,-0.13002,-1.2779,1.6556,0.81376,-1.9155,1.375,1.3495,-1.0993,-0.48715,0.099528,-0.35959,0.99235,-1.4309,0.94129,-0.002423,0.55871,-0.51258,-0.71665,-0.23205,0.43111,0.048531,0.35459,0.25259,0.023047,-0.10449,-0.027925,-0.33399,0.12508,-0.35952,-0.18103,0.17603,0.25255,0.12501,-0.15549,0.20163,0.38014,-0.10449,-0.35957,0.22702,0.2526,-0.027969,-0.07899,-0.385,-0.69115,0.96687,-0.56356,-0.2575,0.12509,0.3291,-0.53826,-0.53812,0.45667,2.2677,-0.12997,-0.84423,-0.79319,0.27811,0.5332,-0.027993,-0.48713,-0.53811,0.099564,0.55867,-0.41058,-0.20653,0.17613,0.023047,-0.334,0.17603,0.48211,0.20155,-0.25753,-0.18102,-0.23198,-0.92068,0.63523,0.38019,-0.4361,-0.028042,-0.3851,0.32914,-0.20653,1.528,-0.28303,0.43116,-0.053476,0.27809,-1.3033,-0.10452,-0.002472,0.09957,-0.51262,-0.027969,0.38014,0.023072,1.0179,-0.12996,-0.25751,-0.15559,-0.48713,0.023054,-0.53818,1.2474,0.66082,-0.5126,0.38011,-0.30855,-0.35959,-0.10454,0.17605,-0.30855,-0.12994,-0.30851,0.1506,0.099613,0.15058,0.12509,0.099559,0.048451,0.15054,0.07402,0.17608,-0.30852,-0.25751,0.1251,0.25263,-0.48706,-0.002423,0.15053,-0.41061,0.45666,-0.18106,0.78828,-1.1758,0.43114,-0.18101,0.4312,-0.23202,-0.20656,-0.13,0.048555,1.0944,-0.35959,0.074106,-0.23203,-0.33409,0.15055,-0.027962,0.22707,0.17611,-0.33408,0.35464,0.023029,0.96683,-0.15554,-0.28306,-0.58906,-0.33401,-0.20651,0.43115,0.022992,0.048531,0.25255,0.22704,0.12507,0.20164,-0.64006,-0.20644,-0.56367,0.45666,0.022998,0.53317,-0.053433,-0.64015,0.45666,-0.18101,-0.05347,-0.23203,0.38008,0.22706,-0.1045,0.074051,0.58424,-0.92072,0.15061,-0.05347,-0.12998,-0.18102,0.40563,0.35462,0.35463,-0.18103,-0.0535,-0.43612,-0.10444,0.4567,-0.027913,-0.35953,-0.10452,0.40562,-0.079039,-0.053513,-0.002461,0.27806,0.09957,-0.053446,-0.334,0.12512,0.27805,-0.10455,-0.25756,0.20158,0.12509,0.25263,0.023047,-0.078966,-0.66562,-0.002461,0.30358,0.17604,0.023035,0.02301,-0.15551,0.32919,0.15059,-0.64013,-0.078966,0.78827,-0.20655,-0.61469,0.43119,0.27811,-0.4361,-0.10449,0.17605,-0.10448,-0.33408,0.30364,-0.05347,-1.0227,-0.002418,0.27808,0.25252,-0.02795,-0.053464,-0.25751,0.38017,0.25265,0.48209,-0.15558,-0.20658,0.25261,-0.18095,-0.027944,0.76278,-0.64015,-0.23204,-0.30853,0.40561,0.15055,0.22708,-0.23203,-0.15549,0.58422,-0.053458,-0.15548,-0.15551,-0.18101,-0.053519,-0.079008,-0.078977,0.099564,-0.71665,0.3036,1.3239,-0.79315,-0.283,-0.4106,0.63518,-0.53815,0.53317,0.023029,0.32908,-0.15549,0.099588,-0.43603,-0.51251,-0.18097,0.48212,0.099546,0.048506,0.22706,0.022998,0.48222,-0.38506,-0.15548,-0.15549,0.38013,0.32907,-0.20655,-0.079026,-0.20649,0.66075,0.45672,-0.56359,-0.25754,-0.20651,-0.002472,0.023041,0.55869,-0.23205,-0.13,-0.13004,0.074033,0.023065,-0.18098,0.3802,-0.078972,0.27807,-0.15553,0.2526,-0.20655,0.53318,-0.56364,-0.18102,-0.002448,-0.69108,0.27813,0.43112,-0.027969,-0.18101,0.074002,0.023029,-0.002436,-0.23199,0.15058,-0.053476,0.048567,0.45659,0.2526,-0.35961,-0.38508,0.20158,0.048573,0.35465,0.22712,-0.232,-0.43607,0.25255,0.048525,-0.5636,-0.10453,-0.053458,-0.002443,0.099601,0.2016,-0.027962,0.25258,0.86474,0.048518,-0.12997,-0.76769,-0.20651,0.58424,0.02301,0.17609,-0.10451,-0.078996,0.048494,-0.71662,-0.002443,-0.10449,0.023065,-0.078953,0.73725,-0.079008,0.20159,-0.18105,0.60968,-0.079033,-0.23205,-0.002503,0.35465,0.32913,-0.25755,-0.35953,0.50774,-0.12995,-0.002479,-0.10452,0.048531,-0.1045,-0.48712,0.32916,0.53318,0.22712,-0.41058,-0.027974,-0.13007,0.12507,0.2271,-0.002461,-0.002472,-0.15549,-0.053464,0.35465,-0.10451,0.45669,0.17604,0.099534,-0.25751,-0.35956,-0.027962,-0.23203,-0.053476,0.074057,0.17611,0.35464,-0.002491,0.09951,0.17609,-0.20658,-0.18102,0.22713,-0.02792,-0.30852,0.074111,-0.35953,-0.10453,0.63517,-0.35957,0.25259,0.023035,0.53317,0.12508,-0.33401,-0.5636,0.5077,-0.15556,-0.002503,0.099546,0.023035,0.30366,0.023059,-0.027969,-0.5126,-0.181,-0.002436,0.048494,0.048543,0.17603,-0.079002,0.27809,0.7883,-0.23202,-0.35953,-0.46155,-0.027962,0.22707,0.074038,-0.25753,0.2781,-0.43607,0.89029,0.048543,0.023023,-0.56356,-0.02798,-0.10454,-0.2321,-0.10453,0.38016,0.22712,-0.53812,0.099613,0.17611,-0.053415,-0.10448,0.3801,0.07402,-0.15551,0.099552,0.048536,0.15058,0.023047,-0.4616,0.17614,-0.1045,0.099559,-0.0535,0.30364,-0.027993,0.35467,-0.28306,-0.18103,-0.1555,-0.078966,-0.13003,0.22706,-0.15554,0.074069,-0.05347,0.22713,0.074087,-0.027931,0.66069,0.074044,0.048543,-0.13002,-0.64018,0.048561,-0.05347,-0.35957,0.78826,0.20163,-0.58913,-0.002454,-0.30855,0.22707,-0.23205,0.27811,0.15057,0.25259,-0.12998,0.023059,-0.18098,-0.078959,-0.15548,-0.00251,0.12506,-0.079008,0.2526,0.12502,-0.69116,0.6352,0.099595,-0.12998,0.3802,-0.10455,-0.10446,-0.078996,-0.18105,-0.0535,0.58419,-0.23199,-0.15548,-0.23201,-0.079008,0.17608,0.30363,-0.28309,0.32914,0.1506,0.38018,-0.48707,-0.13,-0.30855,-0.002516,0.022968,0.40563,0.38013,0.30361,-0.30856,-0.25752,-0.33399,0.023103,-0.33399,-0.33402,0.074051,0.30357,-0.23203,-0.053513,-0.25753,0.60968,0.30358,-0.002503,-0.10446,1.0689,-0.28303,-0.41061,-0.12999,-0.028029,-0.28306,0.30365,-0.053415,-0.46156,-0.64011,0.023047,0.40561,0.022998,0.63519,0.22709,0.25257,0.22713,-0.027969,-0.20651,-0.23198,-0.20654,-0.25761,-0.38506,0.55872,-0.51257,-0.053525,0.17609,0.15059,-0.53808,0.074062,0.76279,-0.10456,0.099534,-0.38511,0.60971,0.22711,-0.30854,-0.56361,-0.027938,-0.15546,0.63521,-0.002516,-0.25757,0.3291,-0.13002,-0.002479,-0.33401,0.32917,0.20162,-0.10444,-0.12999,0.022968,0.023017,0.3291,0.2016,-0.35956,-0.66563,0.38017,0.32915,0.023054,0.27808,0.4056,-0.48711,-0.15549,-0.25753,-0.25753,-0.053506,-0.13001,0.60972,-0.23201,-0.2575,0.17606,0.32909,0.023023,0.023041,-0.10447,0.20165,-0.25756,0.048573,-0.64012,-0.027962,0.20155,0.15049,0.48217,0.09954,-0.13,-0.10447,0.17607,-0.15546,-0.41057,0.76278,0.048458,0.074038,-0.079021,-0.23202,-0.12996,0.15063,-0.232,-0.23198,-0.12995,-0.1045,0.32904,0.38008,0.17604,0.3801,0.15057,-0.23197,0.023103,-0.2575,-0.10444,-0.028005,-0.002516,-0.18103,-0.15552,0.43117,0.12504,-0.053458,-0.23202,0.074124,-0.23197,-0.027993,-0.028036,1.1198,0.25254,0.25257,-0.97174,-0.66562,-0.002418,-0.23197,0.25268,-0.38509,1.3494,0.58417,-0.30859,-0.30854,-0.1555,-0.13001,-0.1045,-0.002461,0.17612,-0.002436,0.074038,-0.28308,0.20157,-0.027993,-0.23204,0.27811,0.48221,-0.25753,-0.053451,-0.23204,0.023005,-0.027969,0.35462,0.048567,-0.51261,0.099577,0.27811,0.17609,0.25265,-0.10449,-0.25756,-0.053519,-0.30854,0.30361,-0.078972,0.27811,-0.25751,-0.078947,0.023054,0.099521,-0.33413,0.48216,-0.053482,-0.15547,-0.027944,-0.46158,0.15059,0.074069,0.30366,0.2271,0.2781,-0.3851,-0.38508,0.15057,0.27808,0.023029,-0.33409,-0.30848,0.099619,-0.078923,0.25258,-0.1045,-0.15555,-0.002461,0.68619,-0.053464,-0.20652,-0.43604,0.25262,-0.20653,0.50762,-0.25757,-0.20653,0.17609,-0.18103,-0.027938,0.12509,0.25262,-0.33404,-0.13001,-0.18106,0.15055,0.2526,-0.33406,0.4822,-0.053464,-0.25753,0.32913,0.12512,-0.35959,-0.30858,-0.28306,0.12504,0.30356,0.15056,0.074075,0.074081,0.048585,0.048598,-0.30853,-0.46166,-0.10446,-0.20655,0.45668,0.81377,-0.15551,-0.56359,0.20159,-0.13,-0.078966,-0.38511,0.20159,-0.027956,0.12502,0.023041,0.074106,0.1761,-0.48707,-0.053446,0.099564,0.27805,0.35459,-0.13001,-0.25751,-0.002467,0.074093,-0.10447,-0.10447,0.023096,-0.41061,0.43112,0.27806,0.048494,-0.181,-0.64012,-0.20646,0.86485,-0.07899,-0.41054,-0.51262,0.38011,-0.13003,-0.079014,0.38014,-0.13,0.22709,0.048567,-0.28301,-0.053476,-0.15553,0.074013,-0.13004,-0.12999,1.0179,-0.38503,-0.027944,0.15062,-0.56359,-0.41057,-0.07899,0.48209,0.20157,-0.002485,-0.15551,-0.053488,0.074038,0.22708,-0.078928,-0.18099,0.099564,-0.18106,0.58415,-0.1555,-0.30853,-0.02795,-0.2065,-0.10447,-0.30848,-0.28305,0.94132,0.15054,-0.41066,0.12506,0.17605,-0.18103,0.099588,0.023059,0.25264,0.20162,-0.33406,-0.18102,-0.23203,-0.10452,-0.10447,-0.20652,0.27812,0.074075,0.048573,0.27811,0.099521,0.022968,0.27805,0.12504,-0.078977,-0.23198,0.12515,-0.283,-0.10444,-0.28305,0.22708,-0.41062,0.40559,0.38013,-0.30856,0.2271,-0.078984,0.074038,0.12513,0.40569,-0.15554,-0.15556,-0.10452,-0.4871,-0.002436,0.30364,0.048585,-0.002479,0.048555,-0.002454,0.12508,-0.053476,-0.053513,0.27805,0.048506,0.30362,-0.79312,0.55875,-0.053439,-0.28303,0.2526,-0.48716,-0.28306,-0.002521,0.048536,0.27812,-0.027974,0.1506,0.12512,-0.15545,-0.028018,-0.028023,0.3036,-0.002479,-0.2065,0.023047,-0.41055,0.4822,0.53323,-0.10447,-0.3086,-0.48714,-0.002516,0.099552,0.68619,-0.027969,-0.027925,-0.5891,-0.10444,-0.027974,-0.18103,-0.20658,0.35464,0.09954,0.2271,-0.027962,0.20163,-0.027956,-0.027956,-0.30852,-0.25756,0.20155,-0.053488,0.099552,0.15057,-0.15551,0.32919,0.22717,-0.053488,0.074081,-0.10452,-0.53815,-0.46167,-0.079026,0.20158,-0.283,0.22714,0.45672,0.15062,-0.35954,0.07402,-0.25761,0.58418,0.048536,-0.1045,0.0741,-0.33401,0.2271,-0.10447,-0.12998,-0.18104,-0.23208,0.43113,-0.079026,-0.002454,-0.28296,0.27816,-0.33405,0.2016,-0.002467,-0.18106,0.0485,0.20153,0.023017,0.48223,-0.71662,0.30367,-0.10445,-0.30853,0.32915,-0.079021,0.20152,-0.10453,0.27809,-0.13007,-0.13002,-0.10443,-0.078917,-0.053427,0.074087,-0.13002,0.023029,-0.13005,0.074013,0.15059,0.63523,-0.4871,0.63528,0.1761,-0.18103,-0.46161,-0.81873,-0.35961,0.35461,0.76276,-0.35956,-0.15546,-0.66561,0.32918,-0.002467,0.55867,-0.079045,-0.053495,0.023041,-0.12999,0.023054,-0.002454,-0.12996,0.023047,-0.25753,0.20157,-0.28306,0.2526,-0.02798,-0.15551,0.43118,-0.33401,-0.38503,-0.5891,1.0944,-0.76774,0.17601,0.43112,-0.053519,0.25262,0.048536,0.023072,-0.33404,-0.18098,-0.053446,-0.002467,-0.66567,0.48214,0.73724,-0.20652,-0.078984,-0.10447,0.30366,-0.4616,-0.20652,-0.028018,0.30356,0.15054,-0.078984,0.09954,-0.053427,0.023059,-0.18098,-0.053439,-0.053451,-0.027993,-0.30856,-0.002485,0.45666,-0.15551,0.099577,-0.027993,0.12509,0.22709,-0.66565,-0.1045,-0.20656,0.5587,0.96686,-0.43611,-0.18108,-0.43607,-0.23201,-0.18097,-0.41054,0.25264,0.50766,0.27809,-0.053519,-0.079002,0.25262,-0.027969,-0.232,-0.20647,-0.053458,-0.002503,0.022961,-0.002485,-0.0535,0.20161,0.27814,0.15063,-0.181,-0.1555,0.25259,0.048512,-0.46164,-0.28309,0.099601,-0.05347,0.60977,-0.027956,0.30356,-0.027944,-0.35955,-0.38506,0.12505,0.12504,0.022998,0.45668,-0.23202,-0.181,-0.12998,-0.053415,-0.23201,-0.027969,-0.30861,0.71167,0.91577,-0.38507,0.09957,-0.28306,-0.027913,-0.25751,-0.35954,-0.18105,0.48216,-0.181,-0.053513,-0.1045,0.048555,0.27815,-0.053464,-0.51262,0.38017,0.30358,-0.28308,0.15061,0.12508,-0.28302,-0.027998,-0.18099,-0.12998,-0.38505,-0.33404,0.25259,0.30358,0.15055,0.20157,-0.181,0.048543,0.50771,-0.053446,-0.10447,0.09957,0.099515,-0.18109,-0.43612,0.27812,0.074087,-0.18098,-0.89521,0.55872,0.96684,-0.46161,-0.20655,0.022998,-0.053495,-0.002461,-0.10447,0.1506,-0.10445,0.099626,-0.10445,-0.02798,0.073989,0.099485,0.38008,0.074013,-0.053476,0.099583,0.27818,-0.25748,-0.74215,-0.002454,0.76272,-0.41065,-0.25758,-0.10452,-0.078947,0.30366,0.27817,-0.002423,-0.51257,0.12507,0.25256,-0.33409,-0.28311,0.22712,1.3239,-0.48708,-0.23201,-0.15548,-0.25753,0.048525,-0.18105,0.07402,0.22711,-0.23202,0.25262,-0.18097,-0.027944,-0.38502,0.09957,0.17607,0.073977,-0.20654,0.023023,-0.027993,0.48217,-0.12995,-0.20648,-0.12997,-0.38504,0.2781,-0.43611,0.099534,0.7117,-0.15551,-0.25754,0.099577,1.0689,-0.46157,-0.64011,-0.41057,0.20155,0.27808,-0.33413,0.17606,-0.38508,-0.027944,0.38024,0.048598,-0.23199,0.048518,0.30356,-0.41063,0.09951,1.0689,-0.35956,-0.25752,-0.20649,-0.33401,-0.23198,-0.02795,0.17605,0.02301,0.099515,0.20156,-0.053464,-0.25751,0.099626,0.099583,-0.079014,0.25261,-0.002534,0.12507,-0.053562,0.48211,-0.35955,-0.053439,0.20167,-0.51254,-0.41055,-0.027962,0.30355,0.12504,-0.23209,0.20158,0.30365,-0.078977,0.15059,-0.181,-0.10446,0.8648,-0.28306,-0.23207,-0.15554,-0.20652,-0.25754,-0.078953,0.30364,-0.027931,0.048573,0.53317,0.17602,-0.23209,-0.30855,-0.18101,0.48222,-0.053476,-0.053476,-0.334,-0.20647,-0.002461,-0.028023,0.38007,0.07402,0.048518,-0.02798,0.22708,-0.078966,-0.002394,-0.02792,-0.38502,-0.15553,-0.46167,0.22704,1.3494,-0.33405,-0.56361,0.074111,0.3802,-0.15549,-0.46161,0.0485,-0.25756,0.27808,0.2526,-0.15549,-0.078977,0.099601,0.30364,0.099613,-0.13003,0.12505,0.27811,-0.18101,0.35464,0.074057,-0.078959,-0.33404,-0.41057,-0.232,0.17604,0.27809,-0.53814,-0.053476,0.048561,0.15058,0.048543,-0.15548,0.71179,-0.181,-0.18101,0.073989,0.20158,0.099491,0.20158,-0.33405,-0.46153,-0.15543,0.30369,-0.053458,-0.18103,0.38006,0.63517,-0.38513,0.048549,-0.078959,-0.41052,0.02309,-0.002423,-0.15553,-0.028029,0.66065,0.22702,0.35464,-0.079014,-0.41054,-0.18097,-0.23196,-0.10444,0.023065,-0.002454,0.099503,-0.079014,0.022992,0.2271,0.27811,0.048555,-0.12999,-0.20647,0.32917,-0.38511,-0.028054,0.20154,0.22711,-0.48708,-0.35953,-0.23198,-0.23197,-0.23199,0.71173,0.20153,0.12499,0.35459,-0.23205,-0.334,-0.25748,0.17612,0.30363,0.15059,0.099564,-0.25753,0.048482,0.15056,-0.15551,-0.02798,-0.12999,-0.4616,0.35467,-0.18101,0.048585,-0.181,0.12504,0.15052,0.048531,-0.25752,0.099564,0.55871,0.40569,-0.43605,-0.97174,0.22713,-0.002588,0.32905,0.68618,-0.10449,-0.12992,-0.43605,-0.3595,-0.23197,0.09957,0.58419,-0.20661,-0.027998,0.45661,-0.38511,0.53319,0.04858,-0.027944,-0.3085,-0.12995,-0.053464,-0.079039,0.074013,0.073984,0.15054,0.048536,0.1506,0.074124,-0.18094,-0.20647,-0.48711,-0.3851,1.4259,-0.33407,-0.25756,0.17609,0.25264,-0.46158,0.55873,-0.41057,-0.35958,0.66063,-0.028018,-0.23205,0.32919,-0.41054,-0.12994,-0.027969,0.04861,0.5587,0.048512,0.2015,-0.078996,-0.028011,-0.13001,-0.181,-0.23198,0.1251,0.023078,-0.41056,0.15058,-0.07907,0.25257,0.17604,0.78825,-0.053488,-0.12999,-0.46157,-0.4105,-0.35951,0.099595,0.15054,-0.053531,0.0485,0.099546,0.27812,0.048573,-0.002423,-0.28301,-0.053458,-0.28308,0.66067,0.81373,-0.3851,-0.4361,-0.33406,-0.12998,0.04858,0.048598,-0.33405,0.2016,0.22705,0.22709,0.12504,0.048555,-0.28303,-0.10447,-0.18097,-0.15549,-0.1555,0.02301,0.86471,0.15052,-0.053519,0.048555,-0.002443,-0.2065,-0.15544,0.30366,-0.35951,-0.30856,-0.079033,0.09951,0.099521,0.12505,-0.13,0.40571,0.074111,-0.027974,-0.20653,0.12507,0.15056,-0.25756,-0.71668,0.66073,-0.002467,0.53322,-0.002467,-0.13,-0.30855,-0.18104,0.022998,-0.15554,-0.078996,-0.027993,0.32915,-0.078917,0.38018,-0.10444,-0.23203,0.074013,0.22707,0.022986,-0.10451,-0.078972,-0.15547,0.27812,-0.15548,-0.053458,-0.078947,-0.23205,0.15055,0.53313,0.099521,-0.053531,-0.10448,0.023096,-0.20646,-0.002423,-0.12995,-0.13003,0.27807,-0.43613,0.099546,0.38013,0.099583,0.15059,0.023072,0.048573,-0.15549,-0.25757,0.48214,-0.028005,-0.35959,-0.15553,-0.28302,-0.181,0.099595,0.20163,-0.07891,0.12507,0.4056,0.22702,-0.053513,-0.33406,-0.18098,0.25267,0.38013,-0.027956,-0.0535,-0.053506,0.048494,-0.23204,-0.181,-0.28306,0.43121,0.074051,0.17609,-0.28302,-0.28305,0.22711,0.58416,-0.51265,-0.48711,0.15059,0.76276,-0.5636,0.099577,0.048555,-0.12998,0.048531,0.25252,-0.4361,-0.30855,0.20158,-0.23198,0.32917,-0.027974,-0.15548,-0.05347,-0.28303,0.25257,0.048512,0.27806,-0.027974,0.3291,-0.027925,-0.38502,0.023096,-0.15545,-0.56363,0.02298,0.76273,-0.13005,-0.33411,0.48216,0.30366,-0.35952,-0.334,-0.13001,-0.002485,0.15056,-0.18101,0.15054,0.48215,0.074057,0.074026,0.38019,-0.46156,0.27817,-0.48707,-0.35959,0.53317,0.09954,-0.15551,-0.58916,0.20163,-0.12999,0.32921,-0.078972,-0.20653,0.15052,-0.10453,0.099546,-0.0535,0.048585,0.25262,0.15063,-0.053464,-0.25751,0.048518,0.35459,0.073989,0.048531,-0.4106,-0.12996,0.048573,-0.10444,-0.002448,-0.002436,-0.002479,-0.10452,-0.20653,0.58417,-0.18103,-0.25753,-0.078953,0.27812,-0.53809,0.53321,0.35465,0.12502,0.53315,0.099454,-0.46161,0.04858,-1.2268,0.023059,1.1199,-0.25751,-0.30856,0.17605,-0.38513,-0.13002,0.048592,0.048561,0.30363,0.17611,0.023078,-0.18098,-0.053488,0.25255,0.12504,0.22705,-0.053476,0.07402,-0.35951,-0.30851,-0.2065,0.099559,-0.23205,0.53311,0.20158,0.43118,-0.33402,-0.41054,-0.35951,-0.053446,0.15057,-0.078972,0.022998,0.15053,0.074008,0.048512,-0.13001,-0.20651,0.99237,-0.10445,-0.15548,0.099601,-0.30856,0.099491,-0.23207,0.20157,0.58421,-0.18103,-0.027987,-0.23201,0.1251,-0.43604,-0.38503,0.38011,0.09951,0.048525,0.15057,0.30363,0.15057,0.12509,-0.181,-0.25748,0.17607,-0.23208,0.20156,0.17606,0.2781,-0.027969,0.048543,0.074069,-0.41055,-0.6146,-0.002394,0.022992,0.99227,0.45658,-0.1045,0.023059,-0.30853,-0.33399,-0.25751,0.023078,0.099546,0.43108,0.12501,0.20157,-0.25754,-0.027969,-0.053415,-0.002448,-0.18097,-0.10448,-0.053464,0.022968,0.023017,-0.18104,0.32915,-0.002479,-0.15548,0.023029,0.12509,0.15059,0.32914,-0.18106,-0.46161,0.30363,0.074038,-0.181,-0.23198,0.074062,0.023065,0.023047,-0.13004,0.73718,0.099503,0.17609,-0.078996,-0.00243,-0.18097,-0.28301,0.048598,-0.30853,0.17606,-0.15557,-0.41063,0.68623,0.81378,-0.30855,-0.027938,-0.33406,-0.35951,-0.1555,0.20158,0.43108,0.17606,0.12505,-0.28304,-0.15546,-0.053427,0.15064,0.04858,-0.30851,-0.00251,0.27803,0.27803,-0.10447,-0.10447,-0.02795,-0.10445,0.12509,0.17611,-0.027987,0.022998,-0.10456,0.09957,-0.002461,-0.46156,-0.053421,0.25267,0.074051,0.1251,-0.23201,-0.053525,-0.028018,-0.028018,0.09954,-0.027969,-0.28305,0.32915,0.38018,-0.15548,-0.23201,-0.25754,-0.0535,0.32914,-0.28307,0.15056,0.22714,-0.35956,-0.20651,-0.12996,-0.18099,-0.07899,0.40559,0.12501,0.048494,0.048573
0.099528,0.12507,-0.20647,-0.00243,-0.25748,-0.078959,-0.33404,0.099521,-0.002503,0.12504,0.099559,0.023047,0.15059,-0.12998,0.023054,-0.15548,-0.12999,-0.1045,0.048518,0.25256,0.074038,0.2016,0.023059,-0.10447,-0.078947,-0.25751,-0.027962,-0.078996,0.20153,0.099528,0.099552,0.15058,-0.078941,-0.12998,0.09957,-0.12998,-0.30852,-0.13001,0.25256,-0.027969,0.099552,0.15058,-0.078959,-0.053464,0.099564,0.023035,-0.13002,0.074013,0.074026,-0.027956,0.22708,-0.10447,0.023059,-0.027938,-0.12997,-0.053451,-0.41054,0.048512,0.12501,0.12501,0.25257,0.048549,0.12507,-0.12996,-0.20647,0.074081,-0.25752,-0.079026,0.099534,-0.027987,0.25259,-0.027944,-0.078959,0.023065,-0.15547,0.023035,-0.1045,0.023005,0.12504,-0.15549,0.15055,-0.027962,0.074057,-0.027956,-0.053458,-0.053451,-0.30852,0.023023,-0.02798,-0.027987,0.074051,-0.053464,0.2781,-0.002461,0.023047,-0.027969,-0.30854,-0.00251,0.17604,0.099546,0.12507,-0.12998,0.1761,-0.15546,-0.10448,0.099577,-0.181,-0.028018,0.074013,-0.1045,0.17607,-0.10446,0.12508,0.023072,-0.12999,0.074044,-0.1555,0.17603,0.074013,0.15056,0.17608,0.099564,0.099559,-0.15548,0.074062,-0.181,-0.12998,-0.23204,-0.027987,0.023029,-0.027956,0.20159,-0.02795,0.09957,-0.078972,-0.078972,-0.18101,-0.13002,0.38006,0.099521,0.25259,-0.078972,-0.027944,-0.078941,-0.20646,-0.12998,-0.1555,0.12502,0.099528,0.099521,0.15057,-0.15548,-0.078959,-0.002448,-0.078953,-0.15548,-0.33404,0.048525,0.15051,0.38007,0.20157,0.09957,-0.053433,-0.20647,-0.20647,-0.12998,-0.15551,-0.053519,0.099521,0.074044,0.099559,0.048561,0.12508,-0.02795,-0.05347,-0.05347,-0.25751,-0.027993,0.074026,0.12504,0.20156,0.12507,-0.027944,-0.23198,0.023072,-0.283,-0.181,-0.13002,0.099528,0.15055,0.22705,0.12507,-0.15547,0.15059,0.023054,-0.078984,0.09954,0.099515,0.023017,-0.12998,-0.078972,-0.053439,-0.12997,-0.002443,-0.002448,0.099546,-0.07899,-0.13005,0.20155,0.074026,0.17607,-0.002467,-0.078953,-0.027944,-0.10445,-0.002461,-0.078996,-0.002503,-0.027993,0.023017,-0.027969,0.17609,-0.053439,0.023072,-0.12995,-0.078972,-0.053488,-0.028005,-0.002503,0.25256,0.023035,0.048573,0.074069,0.023054,-0.002454,-0.181,-0.078972,-0.15552,0.17606,-0.07899,0.17606,-0.12998,0.074062,-0.00243,-0.10445,-0.10445,-0.30854,0.12501,-0.002516,0.32906,0.099552,0.074081,-0.15546,-0.002418,-0.25749,-0.20649,-0.15551,-0.079008,0.43106,0.22703,0.12502,0.27813,0.074118,-0.078953,-0.20647,-0.232,-0.30853,-0.028018,-0.028005,0.22706,0.12506,-0.10446,0.023059,-0.078947,-0.078953,-0.18099,0.17603,0.074002,0.17604,-0.002472,0.17605,-0.078947,-0.078947,-0.20646,-0.078947,-0.385,-0.25752,-0.053537,0.30354,0.099534,0.17609,-0.053446,-0.18097,-0.002461,0.048543,0.099552,-0.25755,-0.20656,0.15052,-0.078966,0.099577,-0.027938,0.023065,-0.078972,0.15062,0.099577,-0.13002,-0.41062,0.17605,0.12509,-0.12996,0.074062,-0.078959,-0.053488,-0.053476,0.20162,-0.10451,-0.20654,0.15052,-0.002485,-0.43606,-0.053476,0.38013,0.15061,0.074081,-0.25748,0.023041,-0.13005,-0.079021,-0.078996,0.32915,0.074057,0.27813,-0.2575,-0.23204,0.099577,-0.20653,-0.18108,0.048525,0.63519,0.2526,0.048531,-0.25753,-0.2575,-0.053464,-0.28299,0.20158,-0.15553,0.22707,0.074051,0.099564,-0.002461,-0.28301,-0.078966,-0.12995,0.20161,-0.25754,0.12503,-0.10455,0.048518,0.32911,0.074093,0.38017,-0.30852,-0.30851,-0.69113,-0.33408,0.4056,0.125,0.22708,0.09954,0.048561,-0.12994,-0.10445,-0.28303,-0.002436,0.074081,-0.027998,0.17605,0.25256,-0.027962,0.17608,-0.18098,-0.18098,-0.10445,-0.13001,0.022998,-0.86975,0.22707,1.2219,-0.23202,-0.078966,0.12509,-0.38502,-0.002405,-0.23197,-0.25759,0.30356,-0.027993,0.53317,-0.079051,0.15059,0.1251,-0.43608,0.048616,-0.15546,-0.30854,-0.13004,0.048512,-0.28305,0.17606,0.30361,0.12509,0.3036,-0.10444,-0.41051,-0.15549,-0.028005,0.048512,0.48213,-0.94627,-0.33405,1.6556,0.50771,-0.20651,-1.0993,0.38013,-0.3341,-0.61472,-0.15553,1.375,-0.76767,0.048592,0.048573,-0.053433,-0.12999,-1.1758,-0.079033,1.7065,0.12505,-0.79323,0.25262,1.2474,-0.69114,-0.30853,0.22711,-0.71667,-0.079051,-0.23206,-0.079014,0.2781,-0.15547,0.20161,-0.002418,0.35462,-0.15547,0.02301,-0.00251,0.32907,0.099559,0.048561,-0.2575,-0.283,-0.002418,-0.23197,-0.25755,-0.13003,0.30352,0.048487,0.22707,-0.15547,0.2016,-0.46155,-0.10447,0.20159,0.30364,0.023054,-0.10454,0.58411,0.30358,-0.25754,-0.84419,-0.078947,1.0434,-0.12997,-0.38504,-0.46159,-0.41064,0.50765,-0.002467,-0.20652,-0.053495,0.15059,0.73725,0.40565,-0.33404,-0.35957,0.09954,0.022968,0.25071,-0.00243,-0.20649,-0.33401,0.023084,0.048567,-0.1555,0.074093,-0.30858,0.099546,0.78822,0.12502,0.15056,-0.53809,-0.053488,-0.20649,0.35468,-0.94626,-0.20658,0.76274,0.22707,0.099559,-0.027969,0.023072,0.17616,-0.35954,-0.23198,0.02301,0.099559,-0.30857,-0.002503,0.048561,0.074081,-0.05347,-0.15546,-0.13,0.22707,-0.027956,0.048518,0.12504,0.074033,-0.002423,0.15058,-0.25754,-0.078941,0.20166,0.43121,-0.05347,-0.23208,-0.5637,0.048487,0.023023,0.35462,-0.10445,0.12512,-0.33401,-0.181,-0.38508,0.32913,0.15054,0.27809,0.99235,-0.20652,-0.28303,0.55871,-0.64015,-0.48705,-0.079002,0.53315,-0.58919,-0.10453,0.50771,0.22711,0.68629,-0.56358,-0.20651,-0.61462,0.73728,0.074026,-0.00251,-0.027998,-0.0535,-0.002461,0.099583,0.35465,-0.002412,-0.23197,-0.15551,-0.053537,0.43112,0.30361,-0.20653,-0.10445,0.048512,-0.33404,0.32915,-0.2575,-0.66564,-0.002516,0.81372,0.17604,0.023035,-0.027944,-0.33404,-0.53808,-0.053446,0.86481,-0.053506,-0.053544,-0.25754,0.048518,-0.25756,0.27814,-0.25751,-0.84419,0.3547,0.40571,-0.41059,0.17604,-0.20656,-0.13004,0.58416,0.099595,0.023059,-0.10447,-0.33399,0.15062,0.17606,0.074038,-0.15556,0.27805,0.15052,-0.12997,-0.38501,0.023114,0.023145,-0.10445,0.074038,-0.30863,-0.1556,-0.48716,0.50767,0.35467,0.22712,-0.48708,-0.02795,-0.28303,0.30361,0.3801,-0.25754,0.048536,0.8903,-0.41058,-0.48707,-0.6146,-0.18102,0.20163,0.53318,-0.002528,1.0943,-0.86973,-0.43607,-0.25754,-0.13001,0.45662,0.17609,-0.078923,0.023041,0.22712,-0.10453,-0.25753,0.2271,-0.13,0.12509,-0.15549,0.023096,0.12508,-0.15551,0.22699,-0.25758,0.45661,0.20156,-0.79315,-0.15548,0.7118,0.02309,-0.53807,-0.1045,0.43106,-0.23207,0.099552,-0.43609,0.17609,-0.20647,0.048585,0.73725,0.40568,-0.43611,0.073989,0.48213,-0.078984,-0.33409,-0.053482,-0.027974,-0.25748,0.023035,-0.078977,0.023035,0.04858,-0.12999,-0.028005,-0.35954,0.40564,0.43113,-0.07899,-0.79314,0.3547,0.55869,0.15054,-0.15555,-0.20658,-0.15551,0.099595,-0.30857,-0.053446,-0.181,0.20161,0.58419,-0.028042,0.15057,-0.15553,-0.02795,-0.53812,0.4057,0.68627,-0.3085,-0.078972,-0.079014,-0.41063,-0.35962,0.30361,-0.1045,-0.053464,0.30364,0.27812,-0.33402,-0.28302,0.43112,0.53318,0.12504,-0.30857,-0.28305,0.43117,0.55872,-0.18097,-0.027944,-0.18101,-0.46163,0.76272,-0.38507,-0.51262,-0.48711,-0.002467,0.43119,0.099546,0.35465,-0.48703,0.12507,0.38008,0.38008,-0.23202,-0.002467,-0.12996,-0.18103,-0.51256,0.25262,0.17613,0.6862,-0.23205,0.02298,-0.3341,0.048555,-0.12999,-0.74216,0.40568,0.73731,-0.053482,-0.079002,0.227,-0.53811,0.15055,0.15057,0.20163,-0.15546,-0.35953,-0.28301,0.17604,-0.25754,0.40561,0.43105,0.22708,-0.18103,0.63528,-0.33404,-0.078928,-0.33401,-0.20649,-0.86974,0.81367,-0.002516,-0.053513,0.60973,-0.02795,-0.13002,0.15059,-0.12996,-0.51257,-0.35953,-0.13005,0.78823,1.0943,0.099528,-0.43607,-0.41056,-0.10448,-0.41052,0.023127,0.53317,0.22706,-0.15552,-0.23207,-0.10458,-0.002472,1.2729,-0.078935,-0.64014,-0.64014,-0.43612,1.1198,-0.30857,0.27807,-0.35954,-0.38503,0.30366,1.273,0.12509,-0.46161,-0.69118,-0.28309,-0.002516,0.30363,-0.10452,0.09957,0.099595,0.3036,-0.35946,-0.10445,0.25257,-0.002534,0.22702,0.20161,-0.053482,-0.027925,-0.10449,-0.35952,-0.23197,0.27813,-0.25754,0.5076,-0.20658,0.20153,-0.02798,0.023023,-0.13002,0.20167,-0.41052,0.78832,-0.002448,-0.002491,-0.46164,-0.56366,-0.25754,0.27811,0.32917,-0.28304,0.53321,0.15057,0.27812,-0.18107,-0.3851,0.2271,0.074038,-0.69113,0.38017,-0.00243,0.27815,-0.10449,-0.079033,-0.20657,-0.002521,-0.25758,-0.25752,0.60979,-0.15545,-0.027974,0.1251,0.30363,-0.33404,0.60966,-0.053562,0.099546,0.12502,-0.078953,-0.66565,-0.15546,0.27817,0.22713,0.17612,0.30352,0.022998,-0.51263,0.27814,-0.7932,0.4057,0.048555,-0.12999,-0.56357,0.2526,0.55864,0.12502,-0.43612,0.5587,0.73728,-0.078947,-0.13002,-0.43604,-0.23201,-0.33409,-0.23207,1.0178,0.12506,-0.28306,-0.51258,0.023096,0.048543,-0.20648,-0.078977,-0.38505,0.73717,0.30352,0.20159,0.074087,-0.334,-0.002423,-0.23202,-0.12997,0.43116,-0.23205,0.09951,-0.46164,-0.13001,0.78824,-0.92072,0.15062,0.89035,1.1454,-0.07899,-0.64018,-0.41062,-0.23208,-0.28307,-0.58915,0.53321,0.27817,-0.33401,-0.28303,0.68626,0.8137,-1.0228,0.45666,0.6607,-0.64013,0.023041,0.1506,-0.35951,-0.35953,-0.002448,0.20152,0.32908,-0.13003,-0.002491,-0.053439,0.58424,-0.30849,-0.12996,-0.18097,-0.027944,0.15051,0.17598,-0.2321,0.83923,-0.48709,0.048561,0.15066,-0.41055,0.71177,-0.18098,-0.66567,0.22706,-0.18105,0.074038,0.09957,-0.181,0.22712,0.048598,0.32917,-0.18101,-0.41058,-0.053519,-0.079014,0.023023,-0.078959,0.09957,0.074062,0.04858,-0.078935,0.27814,-0.13002,0.38005,-0.00251,-0.10449,-0.20648,-0.002448,-0.053446,-0.15547,-0.053439,-0.10446,-0.002516,0.12501,0.22702,-0.10455,-0.58916,1.0179,-0.18095,-0.25755,-0.41054,0.40568,0.12507,-0.053544,-0.027993,-0.23203,-0.002461,-0.30854,-0.23202,-0.002443,0.17608,-0.002418,-0.053488,-0.079014,0.22705,0.63515,0.15053,0.27815,-0.28303,-0.02792,-0.56359,-0.027931,0.074087,0.073995,-0.15554,-0.10452,0.09957,-0.002454,0.25261,-0.053495,-0.002454,0.17609,0.048549,0.048494,-0.43611,0.48219,-0.15551,0.4312,-0.002436,-0.002448,-0.41054,-0.58914,0.023041,0.58413,-0.10452,0.30358,-0.002472,-0.53812,0.22713,0.50772,-0.33399,-0.30851,-0.28305,0.048476,0.023023,0.32905,0.27806,-0.027938,-0.00243,-0.25746,-0.15546,-0.23204,0.15057,0.22704,0.073984,0.022998,-0.078947,-0.12999,-0.027944,-0.027956,-0.18096,-0.002443,-0.13002,0.40557,0.3036,-0.7677,0.35465,0.68627,-0.56361,0.50769,-0.76763,0.4312,-0.28309,-0.35967,-0.3086,0.48218,0.0741,-0.15549,0.22714,-0.66564,0.12513,0.17612,-0.30858,0.43113,0.2015,0.20156,-0.33403,-0.23201,-0.18098,0.12505,-0.053433,0.12507,-0.002467,0.25259,-0.23201,-0.053519,0.023023,0.17606,0.20158,-0.15547,0.099564,-0.25746,-0.10451,0.15054,0.099515,0.074038,0.074038,-0.181,0.17615,-0.027956,-0.15546,-0.25756,0.15057,0.176,-0.10449,0.22707,0.09957,-0.23201,0.023059,-0.43607,-0.078947,1.0179,-0.02798,-0.20656,-0.46162,-0.33412,-0.002467,0.15059,0.048604,-0.027956,0.17607,-0.078947,-0.23205,0.32907,-0.028011,0.53315,-0.053439,-0.053458,-0.10445,-0.33401,-0.25748,-0.38501,0.25254,0.27802,0.22709,0.15058,-0.18103,-0.30855,-0.18099,0.30362,0.17612,0.15057,-0.18103,0.022998,0.074038,0.12507,-0.18101,-0.28303,-0.2065,-0.92072,0.94136,0.68626,-0.20653,-0.38514,-0.10452,-0.43609,-0.20653,0.40565,0.25262,-0.25753,-0.12997,0.12509,0.20156,0.32905,-0.10452,-0.10449,0.09957,0.09957,-0.18096,-0.053506,-0.18093,0.1506,-0.30855,-0.15556,-0.079002,-0.28305,0.17605,-0.079014,-0.053409,0.5332,-0.25753,0.15058,0.22709,-0.20659,0.53318,-0.12999,0.45669,-0.13001,-0.25749,-0.23202,-0.2575,-0.12999,-0.15551,0.45662,0.25255,-0.25755,-0.078977,0.1251,0.12513,-0.027944,0.15057,-0.027969,0.12502,-0.079021,-0.13003,-0.18101,-0.10447,0.07413,-0.12999,-0.12998,-0.027993,0.17609,-0.10453,0.20155,-0.1045,0.3801,-0.053537,0.66071,-0.38497,-0.28295,-0.43602,-0.18098,-0.13002,0.176,0.48213,0.4056,-0.13002,-0.027944,0.12509,-0.25753,-0.10449,0.074069,-0.23202,0.43112,0.099559,-0.28306,-0.56361,-0.23201,-0.10448,0.27814,0.20163,0.32915,-0.23203,-0.23208,0.58419,-0.002516,0.074051,-0.20648,-0.3085,0.048592,-0.002423,0.15058,-0.28307,-0.15554,0.09954,0.48207,-0.002461,-0.12999,-0.38502,-0.33399,0.32918,0.40568,0.074026,-0.2321,-0.12999,-0.079002,-0.18101,-0.20646,0.023047,0.2271,0.32912,-0.3341,-0.3341,1.1708,0.43119,-0.64015,0.17609,-0.38506,-0.46157,-0.10447,-0.35954,0.20161,0.02301,0.20156,0.15054,0.048536,-0.15551,-0.027944,-0.12996,0.048536,0.63521,-0.053482,-0.002461,-0.053495,-0.28308,-0.053464,0.023005,0.048531,0.09954,-0.027931,-0.18094,-0.20644,-0.12997,-0.05347,0.022956,-0.43616,0.6097,0.58424,-0.51258,0.22711,-0.12998,0.22711,-0.20655,-0.028029,0.38015,-0.18104,-0.28305,0.32915,0.25264,0.048561,0.25263,-0.64012,-0.10452,0.55869,-0.41066,-0.078977,0.15059,0.15059,-0.25752,-0.053446,-0.10443,0.20159,0.099534,0.048487,0.30352,0.22708,-0.23204,-0.23205,0.15062,-0.20642,-0.10448,-0.078972,0.40566,-0.02798,-0.23204,-0.3851,-0.002454,0.2271,-0.053482,-0.13002,-0.053464,0.023023,0.15056,0.022986,0.023047,0.099546,-0.053458,-0.027956,0.023103,-0.053464,-0.38501,-0.10447,-0.28308,0.099503,1.783,-0.3341,-0.46161,-0.4871,0.048555,-0.97169,-0.43607,0.81383,-0.13005,0.45663,0.15053,0.17607,-0.002497,-0.12995,-0.12997,0.023047,-0.053495,-0.053464,0.099515,-0.18105,-0.02795,-0.053482,0.023047,-0.053476,-0.053427,-0.078935,0.074093,-0.18105,0.15054,0.22704,-0.23208,-0.13002,-0.33405,0.4312,0.40568,-0.053464,-1.0737,0.73724,0.60973,-0.5637,-0.48716,-0.0535,0.48221,-0.23201,0.17612,-0.078923,-0.48709,0.15062,0.40561,-0.079051,0.12502,0.048518,-0.002491,0.32915,-0.02792,-0.30847,-0.18095,-0.13001,-0.13,-0.10455,-0.002503,0.27808,-0.33403,-0.10446,0.43119,0.17607,-0.027974,-0.2065,-0.10453,0.15052,0.15055,-0.13,-0.002436,0.35465,-0.20649,-0.18101,-0.12998,-0.002454,-0.35956,0.17607,0.43116,-0.25757,-0.18104,-0.10447,-0.15546,-0.002418,-0.053427,0.20158,0.17605,0.048476,0.12499,0.048531,0.048549,-0.33397,-0.43604,0.22714,-0.28301,-0.027931,0.099552,0.073989,-0.10453,-0.028011,0.15059,-0.078947,-0.181,-0.10444,0.023065,0.099546,0.048525,-0.002503,-0.56362,0.45668,0.27814,-0.027956,-0.1045,-0.10449,0.074062,-0.10452,-0.079008,-0.079008,-0.027944,0.15056,0.099559,0.73725,-0.41058,-0.46154,-0.18098,-0.33404,0.074044,-0.13007,1.2729,0.17604,-0.079002,0.074062,-0.38503,-0.28303,-0.18097,-0.053482,0.20155,-0.10453,-0.027974,-0.25754,0.048567,0.35468,-0.053458,-0.078935,-0.078966,-0.002485,0.17601,-0.053525,0.32905,0.15056,-0.002448,-0.10444,-0.078898,0.048549,-0.15548,-0.23202,0.15053,-0.15556,-0.61468,0.074051,0.074081,0.71176,-0.35954,0.35467,-0.078972,0.32912,-0.30859,-0.028018,-0.25756,-0.13002,0.35465,0.1506,0.099595,-0.23196,-0.35956,0.32913,0.074013,0.20156,-0.20653,-0.13002,-0.23202,0.20161,0.074033,-0.12995,-0.15546,-0.027987,0.30356,0.048512,-0.002516,-0.20649,0.048585,0.22713,0.074111,-0.002485,-0.078984,-0.13001,-0.00251,-0.48717,0.1506,-0.078984,0.074062,0.04858,0.17609,-0.51259,-0.74219,1.375,0.35463,-0.30861,-0.33409,-0.35959,-0.23201,-0.15549,0.30363,0.43122,-0.15548,-0.027969,-0.053519,0.15052,-0.002479,0.074038,-0.23201,-0.20647,0.099588,-0.078935,0.22714,-0.027993,0.022961,0.22701,0.17602,-0.28307,-0.25751,-0.23194,-0.12991,-0.23193,0.048555,0.17609,0.40559,-0.18106,0.022986,0.30358,0.35465,0.53321,-0.28302,-0.41057,-0.48708,-0.30853,-0.028018,0.048573,-0.15553,-0.053488,0.55866,0.20163,-0.25753,0.22715,-0.30855,0.2526,0.40566,-0.69117,-0.38512,0.30356,0.17607,-0.078966,-0.25749,-0.078928,-0.18098,-0.053451,-0.028018,0.15052,0.48211,0.25259,-0.10447,-0.053446,-0.053427,-0.18098,-0.23197,-0.002485,0.099515,-0.13006,0.07402,0.048512,-0.10449,0.1506,0.099595,0.04858,-0.078923,-0.18101,-0.15554,-0.28309,0.20156,-0.002491,0.12509,0.63526,-0.2575,-0.027944,-0.12999,-0.18105,0.099534,-0.3851,-0.10455,-0.10448,0.38016,-0.002423,0.074087,-0.20649,-0.12998,0.048555,0.8137,-0.25759,-0.10454,-0.33405,0.2016,-0.15546,-0.078947,-0.12994,-0.027956,-0.027956,0.022986,-0.15556,0.20152,-0.053476,-0.078972,-0.10444,0.12509,0.38016,-0.10445,0.099588,-0.28303,0.15051,0.17605,0.02301,-0.25751,-0.25752,-0.35954,0.22712,0.27816,0.15056,-0.25758,0.30358,-0.33408,-0.20656,-0.35954,0.60973,0.12513,-0.05347,0.099595,-0.30855,-0.23207,0.099521,-0.25755,0.15057,0.023072,0.048585,0.074051,0.35458,-0.078984,0.048585,-0.02795,-0.18098,-0.46161,0.27807,0.58423,-0.43607,-0.053488,-0.053439,-0.13,-0.002472,0.09954,-0.18108,-0.002503,0.38015,0.048536,0.20161,-0.18099,0.023072,0.60978,-0.48707,-0.3341,0.55869,-0.4361,-0.15554,0.074069,-0.12998,-0.30852,0.023084,-0.10451,0.2526,0.7372,0.022986,-0.078984,-0.18104,-0.33404,0.023059,0.35468,-0.38503,-0.2575,-0.28301,0.22705,0.15057,0.023017,0.17607,-0.079002,0.22707,0.20164,-0.053458,-0.35953,-0.002467,-0.028018,-0.079057,0.048549,0.30361,-0.078953,0.074057,-0.23201,-0.078947,-0.027931,-0.28305,0.12502,0.40563,0.20156,-0.15553,-0.30856,0.30366,-0.053482,-0.078947,0.17612,-0.20653,0.17605,-0.23207,-0.053488,-0.0535,0.023065,-0.053439,-0.23201,0.20163,0.17609,-0.0535,0.15052,-0.028029,-0.25753,-0.1555,0.7883,-0.027944,-0.18103,-0.12999,-0.38502,-0.51262,0.60967,0.50764,-0.23208,-0.002479,-0.25752,-0.002405,-0.25751,-0.58907,0.66074,0.43117,0.2015,-0.2321,-0.13002,0.099559,-0.20652,-0.027938,-0.181,0.074093,0.074062,0.43118,0.17604,-0.079033,-0.053555,-0.2065,-0.05347,0.0741,0.023059,-0.28302,0.099559,0.60972,0.22707,-0.35959,-0.23207,-0.23202,0.12507,0.074087,-0.078953,-0.30851,-0.23199,-0.053482,0.27802,0.78817,0.30355,0.048536,-0.15546,-0.20646,-0.64008,-0.078935,0.15059,-0.027944,0.12499,-0.028042,0.022974,-0.0535,-0.181,-0.12993,0.32919,-0.15549,-0.38507,0.43114,0.76275,0.48211,-0.58918,-0.23204,0.074038,-0.33405,-0.25751,-0.25746,0.023096,0.09957,0.17603,0.023035,0.15055,0.25257,0.25259,0.074075,-0.28299,-0.15546,0.22715,-0.10452,-0.002534,-0.028047,0.27811,-0.10451,-0.23203,-0.078959,0.12515,-0.28299,0.25265,-0.15554,0.20153,-0.20658,-0.053519,-0.51263,0.86483,0.45675,-0.43607,-0.2065,0.35465,-0.30856,0.17603,-0.23204,-0.18105,-0.18102,0.099564,-0.027938,-0.002443,-0.002412,-0.053451,0.30363,-0.2321,-0.028018,0.58419,0.17609,-0.18101,-0.25751,-0.12998,0.023047,-0.2065,-0.23203,0.048512,0.15051,0.25262,0.074051,-0.027944,0.023054,-0.053433,0.12505,0.023072,-0.35959,0.58419,0.4311,-0.23205,-0.10452,-0.053446,0.17611,-0.2575,-0.15545,-0.41055,-0.1045,-0.15557,1.1708,0.27807,0.07402,-0.35953,-0.20648,0.1251,-0.28303,-0.232,0.20155,0.4056,-0.027987,-0.13002,-0.002454,0.074106,-0.15546,-0.18099,-0.181,-0.283,0.25257,0.048506,0.099473,0.048518,0.50769,0.1506,-0.25751,-0.05347,-0.15548,-0.13002,0.023035,0.12501,-0.002503,-0.25753,-0.10448,-0.12997,0.55874,0.074075,0.20161,-0.28302,-0.10452,-0.10451,-0.00254,-0.002485,0.58418,-0.053458,0.023035,-0.28301,-0.51257,0.099595,0.048549,0.48211,-0.30857,0.048561,-0.078996,0.30363,-0.38505,0.30363,-0.15548,0.22713,0.32913,0.20153,-0.5637,-0.02798,0.099577,0.099588,-0.20652,-0.51254,-0.078977,-0.078953,0.099552,0.40558,0.048531,0.022998,-0.10448,-0.20648,0.023096,-0.10445,0.074062,0.20161,-0.028029,-0.43611,0.7117,0.09954,0.20154,-0.12998,-0.12999,0.048549,-0.078953,-0.20647,-0.18097,-0.10453,0.048518,0.022998,0.099559,-0.002454,0.074069,0.2016,-0.02795,-0.10449,-0.13,-0.43613,0.38011,0.99229,-0.7422,-0.25754,0.81383,-0.48705,-0.002394,-0.35952,-0.38508,-0.10457,-0.2831,0.17609,0.22707,0.048567,-0.078977,0.048592,0.099608,0.048561,0.074038,0.38009,-0.053519,0.22712,-0.18098,-0.078977,-0.078984,-0.334,-0.28301,-0.20649,-0.027993,0.35455,0.022992,0.17606,0.048531,-0.053446,-0.10445,-0.053433,0.023096,-0.078966,-0.4106,0.40562,0.73724,-0.002491,-0.028018,-0.35954,-0.23198,-0.53812,0.20161,0.4822,0.25258,0.15054,-0.15555,-0.30856,0.048549,0.27813,-0.20649,-0.15548,0.20161,-0.181,0.22709,0.048506,0.099497,-0.053476,-0.13001,-0.25748,0.074062,0.22712,-0.15548,-0.002436,-0.053482,0.53311,-0.10452,-0.079014,0.12504,-0.20648,-0.053439,-0.18094,-0.053451,-0.43612,1.1198,0.63517,-0.18106,-0.13004,-0.46158,-0.38506,0.30366,0.023072,-0.30854,-0.35953,0.023017,0.27808,0.074008,-0.027993,-0.30853,0.30363,0.68623,0.099564,-0.71662,0.023078,0.1251,-0.33412,-0.7167,0.66072,0.78827,-0.002472,-0.23203,-0.41058,-0.15549,-0.30854,-0.053458,0.40557,0.12501,0.22711,0.099577,-0.078947,-0.30848,0.78826,-0.002405,-0.15551,-0.30855,-0.20656,-0.053537,0.099534,-0.002467,-0.078984,0.20164,0.15061,-0.23201,-0.38503,0.55869,0.32907,0.0485,-0.74221,0.048549,0.38015,-0.12996,-0.2065,-0.18095,-0.2065,0.048536,-0.002503,0.27804,0.20157,-0.002497,-0.002436,0.15065,0.32918,-0.15548,0.20158,-0.10453,-0.028023,-0.30858,0.099588,0.15057,0.074081,0.023023,-0.38508,0.20164,0.63524,-0.46158,-0.41061,-0.18101,-0.00251,0.20159,-0.027969,-0.078959,0.023041,0.099515,0.048567,-0.078977,0.27808,-0.027998,0.17604,0.25262,-0.41055,-0.51255,0.25269,-0.12999,0.53324,-0.61467,0.022998,0.17601,-0.25759,0.35463,-0.10449,0.32917,0.15061,-0.41054,-0.20653,-0.23205,0.63517,-0.053525,-0.15549,0.20163,-0.027944,-0.12997,-0.053464,0.32917,-0.46164,0.48214,0.22706,-0.20652,-0.30855,-0.18102,-0.13,0.38015,-0.12998,0.074075,0.099595,0.15057,0.12502,-0.13003,0.12505,-0.078972,-0.078959,0.023065,0.048536,-0.12996,-0.10448,0.023029,-0.053537,0.55865,-0.10449,-0.002485,-0.18098,-0.20649,0.15061,0.023072,-0.13002,0.074062,0.073989,0.12507,0.12504,-0.027998,0.20164,-0.18098,-0.10443,-0.38505,-0.002443,-0.56365,0.73718,0.22705,-0.15557,0.43118,-0.30853,-0.23199,-0.23196,0.30366,-0.25751,-0.027993,0.32908,-0.10455,0.073995,-0.20652,0.074081,-0.18095,-0.15546,-0.027969,-0.10445,0.45666,-0.028018,-0.15555,0.07402,-0.15551,0.023059,-0.10445,-0.027962,0.17612,0.099534,-0.078996,0.022986,0.074038,-0.027993,-0.41057,0.55873,0.074087,-0.027969,-0.18101,-0.43608,0.02301,0.20159,0.3291,0.023041,-0.28306,-0.2065,0.32914,0.074093,0.27814,-0.23201,0.20159,0.022974,-0.35954,-0.18106,-0.078984,0.43114,-0.38508,0.40565,0.32915,-0.25748,-0.15551,-0.079021,0.048525,-0.15552,0.074051,0.17608,-0.181,0.22714,0.099613,-0.25753,0.20153,-0.2576,-0.002503,0.60969,-0.33401,0.048531,-0.12998,-0.33404,0.12509,0.30366,-0.38508,-0.002503,0.25257,0.12505,0.12509,-0.078977,-0.6146,-0.002436,0.81381,-0.13,-0.25756,-0.51265,-0.028018,0.30361,-0.15553,0.25264,0.17611,-0.078947,-0.33406,0.099564,0.3036,-0.23208,0.32911,0.27811,-0.13001,0.074106,-0.38499,-0.23199,-0.002418,-0.027969,0.048518,0.12497,-0.18105,0.22705,-0.07899,0.20157,0.074075,0.38017,0.12513,-0.10446,-0.46163,-0.25757,0.43113,0.074038,-0.30855,-0.30851,0.22717,0.048561,-0.10444,0.023035,-0.23208,0.45658,0.45664,-0.18103,0.25262,-0.38503,-0.51257,-0.002423,0.32911,-0.078941,-0.35958,-0.00254,0.25257,0.17606,0.15056,0.25266,-0.51257,0.32919,0.22719,-0.46157,-0.28307,-0.028036,-0.20654,-0.18101,0.27807,0.023035,0.38013,0.048585,-0.12999,-0.33402,0.023023,0.17605,0.02298,0.17607,-0.18101,0.15061,0.099619,0.048592,-0.053427,-0.4616,-0.20655,0.73718,0.20158,-0.15551,-0.43608,-0.13,0.048561,0.074062,-0.002472,0.048543,0.40563,0.35465,0.048543,-0.10451,-0.41058,-0.002405,-0.10444,-0.20652,-0.05347,-0.10447,0.023023,0.22702,0.15052,0.0485,0.2016,0.1761,0.074093,-0.15547,-0.43604,-0.283,0.81371,0.125,-0.30858,-0.02798,0.30368,-0.30851,-0.12994,-0.23202,-0.23201,-0.23202,-0.10453,0.60966,-0.028036,0.12506,0.17606,0.048567,-0.15546,-0.027944,-0.053439,-0.002491,0.023047,0.022998,-0.002497,-0.23202,-0.002461,0.0741,-0.053464,0.048536,-0.18101,0.2271,-0.079008,-0.053513,0.17611,-0.002454,-0.28305,0.048573,0.2526,-0.15549,-0.18098,-0.28302,0.12504,0.12503,-0.13,0.099546,0.15056,-0.027931,-0.12997,-0.05347,0.25263,0.2781,-0.23207,-0.2321,0.023059,0.43118,-0.12999,-0.002436,-0.5636,0.17611,-0.002436,-0.25757,-0.25755,0.66064,-0.18103,0.35461,0.22716,-0.18097,-0.181,0.099564,-0.30853,-0.23201,0.20159,-0.053525,-0.10453,-0.002491,0.023065,0.1251,-0.053439,0.15057,0.074062,0.099546,0.12504,0.074008,-0.10449,-0.18103,-0.12997,0.38016,-0.12996,0.023035,-0.20647,0.074051,-0.18102,-0.28309,-0.58914,0.12505,0.45671,-0.10449,0.48218,-0.30854,0.96686,-0.53812,-0.079021,-0.053506,-0.15554,-0.23204,0.20163,-0.33406,0.5332,-0.078966,-0.12999,0.35467,-0.13,-0.10455,-0.53815,0.83928,0.22711,-0.38507,-0.38508,-0.12998,0.1506,-0.66561,0.17604,0.55864,0.15054,-0.002497,0.074087,-0.10447,-0.078928,-0.027987,0.38016,0.023029,-0.23202,-0.053519,-0.13002,-0.10449,-0.027969,-0.20651,-0.33406,0.27813,0.73729,0.099613,-0.41063,-0.28312,-0.25758,-0.078984,-0.51257,0.55873,0.27814,0.1251,-0.002454,-0.10448,-0.18102,-0.48716,-0.10452,0.48216,-0.15547,-0.30852,-0.078966,-0.13004,0.78829,0.83928,-0.23203,-0.46167,-0.33411,-0.10456,-0.30852,-0.18096,-0.10444,-0.053427,0.048592,-0.10447,0.17609,0.40561,0.048482,0.022974,0.32911,0.25262,-0.30852,-0.33401,-0.002436,0.023084,-0.15554,-0.43615,-0.053513,-0.30858,-0.25752,0.20159,1.1964,0.73727,-0.23204,-0.38506,-0.48712,0.66069,0.022998,-0.3086,-0.05347,-0.15549,-0.078972,0.099613,-0.69114,0.40566,0.58414,0.022961,0.048567,-0.027962,-0.02795,0.023072,0.048543,-0.20649,-0.25746,-0.053458,-0.13005,-0.00254,0.20155,0.17609,-0.053458,-0.12999,0.22713,-0.078947,-0.33404,-0.51261,0.023029,1.0943,0.25257,-0.18103,-0.23203,-0.25753,-0.027944,-0.10447,-0.18099,0.023047,-0.23206,0.12504,0.55869,-0.053495,0.099515,0.25262,0.1251,-0.12997,-0.33404,-0.078984,-0.1045,0.0485,-0.079014,0.1761,0.32913,-0.15549,0.17611,0.04858,-0.2065,0.1251,-0.027993,-0.41063,-0.002479,0.2271,-0.027969,-0.13,-0.053446,-0.02795,-0.078959,-0.20651,-0.028005,-0.15552,0.4056,0.27811,0.12504,-0.053433,-0.15548,-0.18098,-0.078972,0.12509,-0.35961,-0.20656,0.43117,-0.25754,0.38016,-0.51263,0.45672,0.074075,-0.8442,-0.43609,0.53317,0.09954,-0.027974,0.15058,0.22713,0.20158,-0.2065,0.22713,-0.002418,-0.23201,-0.10455,-0.18105,-0.18103,-0.053464,0.074062,-0.18102,0.5077,0.023059,-0.283,0.048598,-0.10453,-0.053519,-0.13005,-0.10452,-0.12999,0.17609,-0.20646,-0.00243,0.22715,0.17608,-0.13007,-0.53815,0.25256,0.63518,-0.181,0.048561,0.25264,-0.15543,-0.43606,-0.28305,-0.13002,-0.23208,0.099552,-0.027944,0.023065,0.20161,0.099601,0.074062,0.074075,0.1761,0.40561,-0.43615,-0.3596,0.25261,-0.25754,-0.13,0.023078,0.048561,0.30366,0.25263,-0.30861,-0.053525,0.022992,0.023041,0.023084,-0.15551,-0.38505,-0.078947,0.30365,0.55873,0.3291,-0.053531,-0.43613,-0.25759,-0.02798,0.099564,-0.12997,-0.35952,-0.078947,0.1251,0.30359,0.22705,-0.13002,-0.13002,-0.078984,0.023072,0.27812,-0.12998,-0.35954,-0.30856,0.25257,0.55866,0.074038,0.023035,-0.027987,-0.15548,-0.15543,-0.283,-0.053421,0.43115,-0.10466,-0.10455,-0.027993,0.30367,-0.10448,0.023078,-0.15544,-0.12998,-0.002467,0.3801,0.25253,-0.30858,-0.002479,0.12507,-0.53813,0.074062,0.91586,-0.43608,0.099595,-0.23202,-0.38511,-0.23206,-0.002503,0.023029,0.15059,-0.10447,0.7118,-0.078966,0.35469,-0.10452,-0.35964,0.12505,-0.18108,-0.10449,-0.078941,-0.078966,-0.002443,-0.10449,-0.053439,0.30364,0.099497,0.09951,-0.079002,-0.12999,-0.053427,0.15059,0.099559,0.048567,-0.33405,0.099534,0.73723,-0.3086,-0.20652,-0.23203,0.023047,-0.35956,-0.078984,0.22712,0.27819,-0.181,0.2016,-0.28309,-0.23207,0.17609,-0.30855
0.17603,0.099528,0.20158,-0.10444,-0.20647,-0.053451,-0.15547,-0.2065,0.048518,0.12501,0.15053,0.22705,-0.002454,0.12509,-0.10445,-0.23198,-0.053446,-0.2575,0.023023,0.20152,-0.002491,0.099546,0.12506,-0.078947,-0.053427,-0.15546,-0.23199,0.023029,-0.15553,0.17603,0.15054,0.074033,0.3036,-0.027925,-0.078941,-0.053439,-0.33402,0.023035,0.023023,0.125,0.12503,-0.002467,-0.053476,0.1761,-0.18097,-0.02795,-0.10446,-0.25753,-0.00251,0.25254,0.15054,0.17608,-0.12996,-0.10445,-0.10444,-0.25748,-0.002467,0.023023,0.099503,0.25251,0.099528,0.15054,0.25259,-0.078935,-0.15545,-0.078923,-0.33399,-0.12999,-0.1045,0.048487,0.22704,0.25257,0.048561,0.074062,-0.002448,-0.10445,-0.05347,-0.078977,-0.0535,0.12501,0.20155,0.099552,-0.002448,0.15062,-0.20647,-0.10446,-0.078959,-0.35953,-0.10452,0.22704,-0.027998,0.15056,0.3036,0.074081,-0.078966,0.15059,-0.20647,-0.38503,-0.02798,0.25252,0.023017,0.15056,0.023054,-0.10445,-0.027956,-0.078959,-0.053451,-0.2575,-0.10451,0.20155,-0.053482,0.15055,0.048536,-0.027944,-0.12996,-0.053451,-0.18098,-0.10448,-0.002485,-0.028011,0.12504,0.074044,-0.078972,0.15057,0.12509,-0.027931,-0.2575,-0.12999,-0.027993,0.12502,-0.027993,0.20158,0.12505,-0.10447,-0.15548,-0.027938,-0.15549,-0.053488,0.12504,0.074013,-0.15549,0.15057,0.023059,0.023072,0.15058,0.09957,-0.078953,-0.078972,-0.13002,-0.10452,0.12504,0.25257,-0.002448,-0.02795,-0.002443,-0.053458,-0.18098,-0.181,0.099534,0.15052,0.15052,0.25257,0.15059,-0.15546,-0.053451,-0.15546,-0.2575,-0.078972,-0.13001,0.048494,0.27804,0.30356,0.17608,-0.078966,-0.027938,-0.20646,-0.3085,-0.078972,-0.053482,0.25253,0.38007,0.20156,-0.027956,-0.053439,-0.078953,-0.23198,-0.18098,-0.053476,-0.10452,0.099528,0.20155,0.22706,-0.027956,-0.027962,0.023047,-0.027956,-0.12998,-0.027969,-0.10449,-0.10451,0.22706,0.15056,0.023059,0.099583,-0.078959,-0.02795,-0.15548,-0.25751,-0.027993,0.12503,0.023017,0.22705,-0.002467,0.12508,-0.002443,-0.078953,-0.027944,-0.2575,-0.027987,0.32905,0.099534,0.048543,0.099564,0.048567,-0.20648,0.023072,-0.10447,-0.1045,0.099515,0.15051,0.25256,0.17605,0.15059,-0.18097,-0.12994,-0.18098,0.023047,-0.33402,0.09954,-0.002491,0.15054,0.023035,0.30358,0.074044,0.074075,-0.18098,-0.10446,-0.25751,-0.027993,0.17605,-0.002472,0.20156,0.09957,-0.10446,-0.027944,-0.027944,-0.232,-0.1555,0.048518,0.074002,0.27806,0.12505,0.048561,0.023072,-0.25748,0.023072,-0.25749,-0.12999,-0.027987,0.099515,0.17604,-0.002485,0.15056,-0.027956,-0.027938,0.048585,-0.23198,-0.12998,-0.20653,0.25252,0.20153,0.023029,0.12508,-0.027944,-0.20646,0.048573,-0.10447,-0.002472,-0.18103,0.15052,0.12503,0.074038,0.15057,-0.078947,-0.10444,-0.078935,-0.2575,0.023017,0.09951,0.09951,0.20156,-0.002454,-0.15547,0.023072,-0.20647,0.099552,0.023035,-0.18101,-0.053506,0.048525,0.12504,0.22708,0.074051,0.12507,-0.12997,-0.078947,-0.027956,-0.20652,0.023005,0.20153,-0.078996,0.048536,0.048567,-0.027938,-0.10446,0.04858,-0.23199,-0.053495,-0.079008,0.048525,0.32908,0.12504,0.099564,-0.18098,-0.20646,-0.20649,-0.10446,-0.13,-0.079008,0.27805,-0.027993,0.22707,-0.053464,0.09957,0.023054,-0.027938,-0.12996,-0.30852,0.023017,-0.027987,0.12503,0.17606,0.099559,0.074069,-0.10445,0.048567,-0.28301,-0.10448,-0.1555,0.20153,0.25254,0.4056,0.27809,-0.30849,-0.4105,-0.23197,-0.33399,-0.12999,0.074002,0.099497,0.63513,0.15052,0.099559,0.12509,-0.027925,-0.078947,-0.078959,0.0741,-0.35956,0.20153,-0.079002,0.12505,0.074044,-0.078959,0.2781,-0.10445,-0.10446,-0.28302,-0.1045,0.25255,0.17604,0.12505,0.15059,-0.15545,-0.20648,-0.027944,-0.283,-0.25752,0.074026,0.099521,0.17604,0.09954,0.074051,-0.1045,0.12509,0.48219,-0.43604,-0.2065,-0.13,0.15054,-0.053482,-0.13002,0.099559,0.1506,0.17608,-0.10445,-0.027969,-0.61462,0.099534,0.45664,0.022998,-0.028005,0.048549,-0.12999,-0.10445,-0.15547,-0.053458,0.074044,0.048525,0.07402,0.15056,0.15056,0.17607,-0.027931,-0.15548,-0.35951,-0.10449,0.27812,-0.079026,-0.053513,0.22707,0.27808,-0.18104,-0.23202,-0.15548,0.023084,-0.053446,0.074087,-0.35959,0.32905,0.25256,-0.053451,0.2271,-0.053464,-0.002443,0.048543,-0.1555,-0.15551,-0.20651,0.023035,0.25258,-0.02798,-0.13,0.27811,-0.23198,0.099577,-0.18101,0.68628,-0.053519,-0.25759,-0.15553,-0.10452,0.15055,0.20155,0.15064,0.074111,-0.23199,-0.51258,-0.18105,-0.028011,0.099491,0.20156,0.45667,-0.1555,-0.078972,0.38019,-0.18096,-0.10449,-0.13001,0.048482,0.074002,-0.28309,0.2526,0.099613,-0.23198,-0.23199,-0.43606,0.35465,-0.4361,0.40372,0.32907,-0.053476,-0.002479,0.074069,-0.18101,-0.053458,-0.5891,0.66077,0.43117,-0.18106,-0.028005,-0.0535,0.048555,0.15055,-0.20645,-0.12999,-0.23201,-0.1045,0.12507,0.099515,0.12503,-0.0535,0.12508,-0.02792,-0.002418,-0.28301,-0.30855,0.048567,0.40563,-0.079026,0.17604,-0.053506,0.15057,0.25265,-0.53807,-0.23201,-0.18098,0.50769,-0.18105,-0.10454,-0.10454,0.2526,0.27812,-0.053451,-0.078959,-0.12999,-0.053446,0.074075,0.023035,0.15053,0.099528,0.20154,0.048536,-0.12996,-0.15546,-0.078959,-0.30849,-0.12999,0.023023,0.022968,0.023035,-0.079008,0.12507,0.20156,-0.12993,-0.02792,-0.25747,-0.20647,0.023017,-0.053513,0.25257,-0.002491,0.074038,-0.1045,0.048573,0.17606,-0.002461,-0.002461,0.27808,-0.5126,-0.13004,-0.002491,-0.12997,0.35467,0.48222,0.25264,-0.43604,-1.0993,0.12504,0.76273,-0.00251,0.17605,-0.25754,-0.1555,0.27815,-0.18102,0.023084,0.30363,-0.053482,0.074002,-0.00251,0.048549,-0.23202,-0.002412,0.30365,-0.30851,0.099577,-0.1555,0.15052,0.43112,-0.079051,-0.079008,-0.33406,-0.53808,-0.20649,0.86488,-0.10444,-0.002461,-0.027998,0.15052,-0.28309,-0.002521,0.2271,0.20163,-0.15549,-0.053451,0.17612,-0.15551,-0.1045,-0.28311,0.27808,0.074062,-0.43607,-0.078966,0.099595,-0.002454,0.1251,0.023047,-0.10452,-0.20654,0.099528,0.048512,-0.078972,0.023078,-0.10445,-0.25748,0.17611,0.2526,-0.13005,-0.13009,-0.13004,0.17604,0.12509,0.27815,0.30371,-0.15547,-0.66561,-0.13,-0.002491,-0.15559,-0.15553,0.32909,0.048567,0.12508,-0.078935,-0.4871,0.023084,0.38016,0.32912,0.96679,-0.51264,-0.30859,-0.41057,-0.15553,-0.027956,-0.10448,-0.1299,-0.053476,0.20156,0.22702,0.12504,0.20157,-0.23204,-0.33405,0.48222,-0.20643,-0.18099,-0.027944,-0.002497,-0.028042,-0.002491,-0.18101,0.12509,0.17609,-0.1045,0.12511,0.22711,-0.10448,-0.25758,-0.13007,0.048506,-0.20654,-0.25751,-0.33396,-0.30851,0.43118,0.38017,-0.15549,-0.053495,-0.02806,0.048463,0.12504,0.86481,-0.56359,-0.38509,0.074087,-0.33404,0.27815,-0.053506,-0.002479,-0.23208,-0.1045,-0.027969,-0.20649,0.32914,-0.23201,0.38014,0.53323,-0.027969,-0.028018,-0.027993,0.074008,-0.25755,0.074057,-0.12997,-0.12996,-0.18097,-0.10449,-0.002479,-0.002503,0.43114,0.02301,0.099552,-0.12996,-0.053476,-0.20647,-0.23201,-0.10448,0.074008,0.83924,-0.028023,0.048561,-0.25753,-0.58914,0.58423,0.83934,-0.46159,-0.30855,0.048518,0.55867,-0.6657,0.48219,-0.027956,-0.13001,0.22713,-0.13001,-0.28303,-0.12999,0.25253,0.074013,0.12507,0.40561,-0.027962,-0.053427,-0.41051,-0.1044,0.20156,0.22706,-0.027993,-0.4106,-0.28305,-0.027962,0.27812,0.32914,-0.30856,-0.181,-0.053451,-0.181,-0.079014,0.022992,0.048536,0.32913,0.09957,0.35466,0.074062,-0.10445,-0.41058,-0.28302,0.17604,-0.15554,0.074013,0.074057,-0.027987,0.12512,-0.20653,-0.053427,0.023084,-0.002454,-0.25757,0.25256,0.25257,0.048549,-0.20652,0.20163,0.40569,-0.10448,-0.232,-0.41058,0.12504,-0.15558,0.07402,0.15055,0.023035,-0.078947,-0.078941,-0.027969,-0.18098,0.30363,0.17609,0.074026,-0.23205,0.048494,0.3036,-0.002443,-0.078947,-0.10449,-0.18095,-0.23202,-0.053464,-0.10456,-0.002491,0.17607,-0.13,0.17609,-0.38505,0.048585,0.35467,0.048555,-0.027998,0.58418,-0.51267,-0.33405,-0.20652,-0.12996,-0.15549,0.27814,-0.053464,0.023047,-0.33411,-0.25757,0.27806,0.30361,-0.002467,0.048604,0.1251,-0.078966,-0.30852,0.048555,0.048518,0.176,0.099521,-0.15553,0.15059,0.074124,-0.10446,-0.28298,-0.38505,-0.027969,0.30357,0.099497,0.12503,0.25254,0.048531,-0.15545,-0.15543,-0.15547,0.048561,-0.10448,-0.25757,0.12504,0.023035,0.2781,-0.20652,-0.053476,-0.078935,0.099546,-0.053476,0.074057,0.15054,-0.13005,0.3036,-0.18101,-0.181,0.30365,-0.38509,-0.64011,1.1454,-0.053446,0.17602,-0.3341,-0.13004,0.40566,-0.15551,-0.15545,-0.15549,-0.10445,-0.078966,0.023029,0.22704,0.048487,-0.053495,-0.10446,-0.078959,-0.002418,0.023072,0.099583,-0.053458,-0.2065,-0.028018,-0.028018,0.099534,0.27808,-0.027956,-0.10447,-0.002436,-0.20647,-0.12999,0.17611,0.12502,-0.15555,-0.20655,-0.079021,0.27815,0.40567,-0.38503,0.023065,-0.23201,0.048561,-0.079026,-0.43613,0.2526,0.81374,-0.232,0.099577,-0.18101,-0.20653,0.048549,0.17609,-0.1045,-0.28305,-0.181,0.023054,0.25261,-0.10446,-0.23201,-0.1555,-0.002443,0.2781,0.15053,0.15051,-0.079026,0.12507,-0.4361,0.60974,-0.35952,-0.46157,0.3802,-0.10449,-0.079033,-0.13005,0.35463,-0.079002,-0.41059,0.074106,0.25263,-0.23202,0.074069,-0.027987,0.32912,-0.20653,0.074044,-0.002485,-0.43607,-0.027944,-0.18101,0.60971,-0.18099,0.023054,-0.13003,0.074051,0.099528,0.074002,0.0741,0.023054,-0.00243,-0.46158,-0.18095,0.15057,-0.20653,0.074013,0.074044,0.12502,-0.027998,0.12509,-0.053421,-0.28299,0.20163,-0.15551,0.17606,-0.10453,-0.10452,-0.05347,-0.18103,0.15056,-0.15549,-0.002436,-0.027956,-0.53808,0.15057,0.3801,-0.33407,0.20155,0.53321,-0.43607,-0.078966,0.074075,-0.41055,-0.002472,0.25257,-0.053506,0.099534,-0.027956,0.099577,-0.002448,0.25265,0.20159,-0.05347,0.074044,-0.00251,-0.13001,-0.079021,-0.10452,0.023059,0.023078,0.40571,-0.23202,-0.15548,-0.25756,0.38012,-0.079014,-0.20656,0.048525,-0.002472,0.048585,-0.078923,0.023059,-0.30851,-0.053476,0.2271,0.048512,-0.079026,-0.053488,0.40564,-0.33402,0.12509,-0.28303,-0.002436,0.6352,-0.1045,-0.18103,-0.25756,-0.30856,-0.25751,0.35465,0.30365,-0.30853,0.45667,-0.30857,-0.10452,0.22705,0.023035,-0.1045,-0.12997,-0.51258,0.15059,0.35469,-0.51259,0.099559,0.6607,0.048487,-0.28305,-0.51263,0.22712,0.32915,0.023023,-0.027969,-0.12995,-0.10446,-0.027993,0.023017,0.20155,0.099552,0.22709,-0.12994,-0.027993,0.023047,0.27815,-0.18102,0.022998,-0.28309,-0.48714,0.43113,0.38017,-0.20649,0.12513,0.22715,-0.10449,0.074069,-0.079063,-0.28307,-0.0535,0.074038,-0.027938,0.048555,0.0741,0.048555,0.12509,-0.053513,0.12505,-0.15553,-0.1045,-0.25751,-0.027956,-0.10447,0.023065,0.17614,-0.15548,0.074044,0.048476,0.20152,-0.053506,-0.002491,-0.002418,0.1251,0.25265,-0.35955,-0.15547,-0.002454,-0.053549,-0.20655,-0.079021,0.099546,-0.12999,0.66075,-0.078966,0.074093,-0.053451,-0.20651,0.048518,-0.18105,-0.23209,0.099552,-0.20653,0.60977,-0.35953,-0.2575,-0.12996,-0.027993,0.27808,0.048482,-0.23205,0.53315,-0.053458,-0.15547,-0.25748,-0.20647,-0.15545,-0.28302,0.12502,0.32906,0.35458,0.35456,0.048555,-0.23201,-0.30847,-0.20647,-0.02792,0.099546,0.099515,-0.028072,0.099528,0.2271,-0.18098,0.099588,0.048555,0.023078,-0.35951,-0.12998,0.02298,-0.15553,-0.079057,-0.23204,0.32917,-0.35953,0.17612,0.074087,0.32917,-0.00251,-0.38511,-0.13005,-0.079002,0.38016,0.48221,-0.46157,-0.30853,-0.18098,-0.35954,0.074033,0.20151,0.53318,0.0485,-0.25755,0.17608,-0.027944,-0.053421,0.048592,-0.33397,-0.23202,-0.10449,0.02298,0.20156,-0.028066,-0.10447,0.22714,-0.283,0.048573,-0.15547,0.38016,-0.13006,0.32908,-0.053513,-0.64015,0.53323,-0.078972,-0.027938,-0.18101,-0.15549,-0.002443,-0.43612,0.30361,0.048531,0.22707,0.60974,-0.23203,-0.12999,-0.30851,-0.30854,-0.28308,0.15054,0.20158,0.099552,-0.10448,-0.12996,-0.002461,0.25265,-0.078996,-0.15552,0.25259,0.048487,-0.28305,-0.20652,0.15059,-0.15548,-0.1555,-0.20649,0.1506,-0.2575,0.048549,0.48211,0.022992,0.17604,0.074026,-0.58908,0.35468,0.17611,0.27814,-0.61463,-0.25753,0.20157,-0.43612,0.20155,0.12506,-0.10453,0.12512,0.78832,-0.30851,0.12509,-0.35957,-0.23209,0.30358,-0.15554,-0.15552,-0.02795,-0.002412,-0.053439,-0.053446,0.15058,0.15057,0.30357,-0.18103,-0.053506,-0.1555,-0.10449,-0.10447,-0.10447,-0.12996,-0.2575,-0.12999,0.35456,0.30358,-0.3086,-0.002467,0.4312,0.023072,-0.20653,-0.078966,-0.18103,-0.30853,0.30363,-0.10452,0.099564,-0.053513,0.023054,-0.02795,0.2271,0.35468,-0.25751,-0.13004,-0.079033,-0.25759,0.12504,-0.05347,-0.2575,-0.18098,0.73731,-0.23202,0.099564,0.2781,-0.1556,-0.10453,-0.30856,0.2016,0.27815,-0.053451,-0.12998,0.023114,-0.43607,-0.079021,0.099528,0.15051,0.32911,0.2016,-0.1045,-0.18101,-0.20647,-0.18097,-0.15547,0.023054,0.35458,-0.3596,-0.053513,0.30359,0.074069,-0.12998,-0.18098,-0.23201,0.45669,0.22711,0.048487,-0.002552,0.15057,-0.35957,0.048592,-0.18094,-0.15546,-0.053464,0.048549,0.074044,-0.053544,-0.053495,0.099528,-0.15553,0.55872,0.17612,-0.48707,-0.25751,0.25263,-0.02795,-0.079057,0.12503,-0.053476,-0.13,-0.30855,0.20164,0.17613,0.099588,-0.02795,-0.18101,0.073989,0.17604,0.25259,-0.053525,-0.28307,-0.38501,-0.18096,0.20164,0.1251,-0.18098,-0.028005,0.27806,-0.13003,0.15051,0.60971,0.12509,-0.64012,-0.12993,-0.05339,-0.51259,-0.18104,-0.13005,-0.2066,0.38014,0.32913,-0.18101,0.048598,0.099577,0.023078,-0.20653,0.68619,-0.10453,0.02298,0.099546,-0.027931,-0.30852,-0.027938,-0.078966,-0.002454,-0.002467,0.17602,-0.079002,0.15055,0.17602,-0.027944,-0.20647,-0.078959,-0.027938,-0.18099,-0.053488,0.048549,0.32908,0.15051,0.099552,-0.1045,0.048567,0.30367,-0.35953,0.023078,-0.15553,0.099528,-0.13003,-0.028023,0.27809,0.17609,-0.078972,-0.053415,-0.38505,-0.56362,1.0944,0.12502,-0.35963,-0.002497,0.048525,-0.00243,0.15062,-0.25751,0.20164,-0.078947,-0.18101,0.27806,-0.33409,0.20152,-0.002516,-0.053446,-0.23198,-0.41052,0.50776,0.3802,-0.053495,-0.30863,0.099497,0.20152,0.074044,0.20159,-0.25746,-0.20647,-0.23197,-0.181,0.12508,0.227,-0.079033,0.048487,-0.053458,0.27813,-0.078923,-0.18099,0.17612,-0.35953,-0.002485,1.2729,-0.28307,-0.13005,-0.13,-0.30854,-0.25751,-0.38507,0.074093,0.45672,0.074057,-0.079014,-0.30859,0.048549,0.43113,0.2271,0.074051,0.04858,-0.10447,-0.12996,-0.053476,-0.15555,0.023005,0.074033,-0.027969,0.048567,-0.12996,0.099588,-0.15545,0.074087,0.074026,0.048494,0.022986,0.074026,0.27809,-0.38506,0.22712,0.048585,-0.58908,0.023084,0.2271,0.20156,-0.15555,-0.20654,0.27812,-0.027962,-0.28305,0.1251,0.45669,-0.25751,-0.1045,0.20156,-0.10452,0.099521,0.17605,-0.23202,-0.027969,0.55873,-0.23199,-0.15549,-0.20649,-0.13001,-0.10454,0.02301,0.048506,0.048531,0.48221,0.25265,-0.10446,-0.43601,-0.18101,0.048487,-0.13005,0.22704,0.25259,0.15056,-0.2065,-0.33401,-0.18096,-0.05347,-0.25753,0.68621,-0.053519,-0.13002,0.20155,-0.41058,0.17613,0.45669,-0.12998,-0.027962,-0.20656,0.15051,-0.13002,-0.028011,-0.13,0.38017,-0.13,0.048573,-0.002448,0.048561,0.17614,-0.43612,-0.028023,-0.027974,0.12504,-0.053451,-0.02795,-0.10447,-0.2065,0.074087,-0.23205,0.63516,0.17606,0.074008,-0.12999,-0.053464,-0.25748,0.048555,-0.053427,-0.20649,-0.078984,0.15051,0.125,0.09954,0.40563,-0.10446,0.048585,-0.18099,-0.30852,0.09957,0.22709,-0.13007,-0.28307,0.43113,0.32912,-0.12996,-0.56361,0.35468,-0.002418,0.074106,-0.43609,-0.10453,-0.053537,0.099521,0.023017,0.40566,-0.28301,0.023078,0.099588,0.074081,-0.12998,0.09954,-0.18109,-0.028011,0.2271,-0.053433,0.074075,-0.35953,0.17609,0.17614,-0.10452,0.15054,-0.028029,-0.027993,0.30358,-0.15548,0.074087,0.12511,-0.10449,-0.30852,-0.18104,0.22705,0.048512,0.17609,-0.002454,0.099588,-0.053464,0.023054,-0.41057,0.25262,1.1199,-0.43613,-0.25759,-0.25757,-0.38504,-0.027969,-0.027944,-0.053451,-0.10445,-0.15547,0.2271,0.12501,0.40561,0.099521,0.09954,-0.053464,-0.078959,-0.20647,-0.23202,-0.35951,0.099564,0.15056,0.12501,0.023005,-0.053506,0.15057,0.1251,-0.02792,-0.23196,-0.053439,-0.30854,0.45659,-0.28308,0.048506,0.12504,0.048531,0.023072,0.30365,0.48221,-0.41054,-0.25754,0.099521,-0.46162,-0.33407,0.3291,0.32913,0.099595,-0.002467,-0.053464,-0.078959,-0.58916,0.50763,0.76277,-0.38508,-0.20653,0.023047,-0.15551,-0.002485,0.15061,-0.283,-0.18102,-0.13004,-0.002491,0.27806,0.15057,0.32916,-0.35955,-0.15548,0.048604,0.023103,-0.002467,0.20156,-0.002521,-0.10456,-0.15551,0.074081,-0.10447,-0.078923,0.15065,-0.2575,0.048531,0.20154,0.17598,-0.053495,0.20159,-0.18097,-0.283,-0.078966,-0.02795,0.12509,0.2526,0.099521,-0.10456,0.12505,-0.20655,-0.25752,0.04858,0.2271,0.099632,-0.027925,-0.25753,0.12503,0.12505,-0.10453,-0.1045,-0.2065,0.12509,-0.33403,0.30364,-0.05347,-0.079002,-0.00254,-0.002491,0.20159,-0.002491,-0.078947,0.17614,0.048561,-0.12996,-0.002423,0.022998,-0.10452,-0.053519,0.12504,0.048555,-0.10448,0.048555,0.43118,-0.181,-0.10447,-0.15549,-0.028018,-0.43613,0.17609,0.27811,-0.20654,0.15065,0.86485,0.074057,-0.10447,-0.51264,-0.28312,-0.028011,-0.46162,0.3036,0.5332,-0.38508,0.20162,-0.12993,-0.41054,-0.10449,0.38012,-0.00254,0.023023,0.023035,-0.12999,0.023072,0.074057,-0.002461,0.04858,-0.078996,-0.18106,0.3036,0.0485,0.099564,-0.053451,-0.10446,-0.23199,-0.05347,-0.18097,0.099534,0.22705,-0.20653,-0.13002,0.73722,-0.181,0.074087,-0.181,-0.232,-0.053464,-0.15552,-0.07899,-0.002497,0.02301,0.048567,0.27814,-0.23203,-0.28303,0.38018,0.17613,-0.48711,0.53309,-0.13004,0.27806,0.02301,0.15059,-0.15548,-0.00243,-0.28298,-0.28299,-0.002461,0.12502,-0.028029,0.32907,0.58419,-0.43609,-0.027969,0.074087,0.12509,-0.002472,0.12507,0.0485,-0.002516,0.25262,-0.027931,-0.35953,-0.12995,-0.84417,0.43118,0.58421,-0.13002,0.25254,0.022974,-0.079026,-0.002479,-0.002461,-0.027956,-0.15546,-0.18095,0.04858,-0.078959,0.27805,-0.15559,0.3291,0.20159,0.12508,-0.18096,-0.053446,-0.28301,-0.10446,0.38011,-0.028018,-0.23208,-0.10455,-0.078977,0.023041,0.048585,0.099608,0.35465,-0.053464,0.20158,0.30356,-0.28305,-0.25753,-0.2065,-0.027962,0.074075,-0.053439,-0.05347,0.023035,0.074051,0.17604,-0.027998,-0.079033,-0.10451,-0.002443,0.50771,-0.12994,-0.053451,-0.20652,-0.078996,0.12499,-0.079021,-0.028005,0.40566,0.099588,-0.002443,-0.38502,-0.12998,0.12515,-0.13001,-0.002516,-0.28311,0.48215,0.074062,0.074057,-0.002405,0.048555,-0.10445,-0.23203,-0.027987,0.022986,-0.10453,-0.23203,0.17612,0.1251,0.023054,-0.002443,-0.027944,0.099564,-0.1555,-0.079033,0.048494,-0.23205,0.12508,0.023054,0.074075,-0.23201,0.074093,0.048592,0.15056,0.17603,-0.10454,0.17606,0.074033,-0.12999,-0.027931,-0.12999,0.15064,-0.232,0.12508,-0.13002,-0.028018,-0.10454,-0.20654,0.048543,0.12512,-0.15548,-0.002394,-0.002467,0.048531,0.45662,0.074026,-0.13005,0.15057,0.048549,-0.41054,-0.027974,0.023108,-0.10449,0.023041,0.022974,0.07402,0.32912,0.099546,-0.20649,-0.12996,-0.078959,-0.20653,0.099588,0.35466,0.099503,-0.48711,-0.51263,0.5077,0.15059,-0.053476,-0.078959,-0.10445,-0.15548,-0.027993,0.048487,-0.028029,-0.002497,0.32912,-0.053439,0.25265,0.023096,-0.46156,-0.1555,0.30362,0.32905,-0.002516,-0.28305,0.023041,-0.027944,-0.41054,-0.027925,0.1251,-0.00243,-0.13001,0.20155,0.35463,-0.25756,0.40563,0.048531,-0.23201,-0.18098,-0.20648,-0.283,-0.23199,0.45661,0.048494,-0.079002,0.099521,-0.053433,0.1251,0.074087,-0.00243,-0.13,-0.12999,0.022961,0.17604,-0.002503,0.25259,0.023096,-0.2065,-0.23198,-0.15549,-0.10445,0.023017,0.25258,-0.15553,-0.13002,0.099552,0.099546,-0.027944,-0.027956,0.074111,-0.58913,0.30358,0.73719,0.22704,-0.18102,-0.18103,0.099613,-0.46154,0.023084,-0.12997,-0.33402,0.02301,0.17602,0.25257,0.12502,-0.02798,0.048531,0.023108,0.048585,0.04858,0.15059,-0.02798,-0.079033,-0.028023,-0.002497,0.27808,-0.10447,-0.027938,-0.28301,-0.18095,-0.10445,0.023047,0.125,0.20153,0.048536,-0.41061,0.30361,0.81383,-0.41056,-0.20647,-0.10447,-0.078972,-0.18106,-0.35959,0.35463,0.53317,0.12509,-0.33404,-0.18095,-0.10446,-0.1045,0.27809,0.12501,0.25258,0.048531,-0.1045,0.099564,-0.053458,-0.12996,-0.15548,-0.027938,0.32912,-0.10453,0.074033,0.15057,-0.002467,-0.35954,0.048585,0.074062,-0.1555,-0.12998,-0.10451,0.30353,0.30354,0.25258,-0.002454,-0.15548,-0.12993,-0.20646,-0.027956,-0.027944,-0.25757,0.3036,0.3036,0.099528,-0.33406,0.27811,-0.053433,0.048573,-0.12999,-0.25752,-0.053476,0.32905,-0.079026,0.023047,0.2781,0.17612,-0.078959,-0.002423,0.074087,-0.10452,-0.079021,0.099485,-0.028005,0.023059,-0.078966,-0.002423,-0.30848,-0.41054,0.22713,0.22712,0.048506,0.63515,-0.053519,-0.15554,-0.1045,-0.10447,-0.002443,-0.027969,0.074081,-0.10449,0.023054,0.15055,0.099515,-0.053476,-0.15551,-0.053476,0.22713,-0.053464,-0.05347,-0.15546,-0.18101,0.099491,0.38011,0.12506,0.023023,0.12508,0.30364,-0.12998,-0.33404,-0.053458,-0.053495,0.17603,-0.00251,0.30361,-0.10451,-0.283,0.40571,-0.33402,-0.002443,-0.25749,-0.028005,0.27805,0.074002,0.35461,0.048531,0.048573,-0.15546,-0.10448,-0.078953,-0.002467,0.15059,-0.053525,-0.053519,-0.20656,0.3546,0.35465,-0.10447,-0.002399,-0.25752,0.12512,-0.28305,0.17603,-0.053525,0.048506,-0.002461,0.40567,0.02309,-0.15551,0.12505,-0.283,-0.078984,-0.15555,0.63519,0.09951,0.048536,-0.25751,-0.15543,-0.10446,-0.027969,-0.232,-0.15554,0.35458,-0.10453,-0.002479,0.27809,0.22708,0.099588,0.048555,-0.10445,-0.12997,-0.078977,-0.23208,-0.079014,0.023029,-0.053495,0.4567,-0.053439,0.25262,-0.181,-0.38508,0.048531,0.71172,0.099515,-0.20655,-0.1555,0.074087,-0.35953,-0.20652,-0.002436,-0.053464,0.22708,0.17601,0.074038,0.22706,0.12507,0.074051,-0.30847,-0.15549,-0.027931,-0.078996,-0.078966,0.38006,-0.10449,-0.10451,-0.10447,-0.078996,-0.053446,0.074069,0.048598,0.023059,-0.2065,-0.002528,0.27805,0.099515,-0.027993,0.023065,-0.053451,-0.23197,-0.20648,0.22713,-0.20652,0.53313,-0.25753,0.53315,-0.15553,-0.20653,-0.002454,-0.28302,-0.027925,0.30366,-0.20655,0.07402,0.3801,-0.028005,0.20159,-0.02798,-0.15546,-0.027931,0.099619,-0.027969,0.12504,0.15055,0.022974,-0.10449,-0.053446,0.17609,-0.12998,0.074062,-0.12995,-0.002467,0.023017,0.22705,0.12503,0.2271,-0.10449,-0.30854,-0.48706,0.099608,0.53321,-0.20649,0.048512,0.5076,0.27808,-0.15556,-0.002479,-0.10444,0.17611,-0.2575,-0.12998,-0.10447,-0.053482,-0.079002,0.074038,-0.053506,0.12505,0.27811,-0.25748,-0.10446,-0.23201,-0.181,-0.10451,0.50759,0.20153,-0.18105,0.099546,0.43118,-0.30849,-0.15548,-0.30854,-0.002443,-0.002443,0.048482,0.22706,0.023023,0.099552,-0.002412,-0.18096,0.023054,-0.25753,0.30358,0.48216,-0.079021,-0.18103,-0.07899,-0.10448,0.023035,0.099613,-0.053446,-0.027944,-0.12997,-0.00251,0.4056,-0.002521,-0.028023,0.15059,-0.15548,0.023084,-0.10447,-0.12999,-0.15547,-0.027969,0.45661,-0.027998,-0.48714,0.15057,0.66074,-0.078972,-0.283,-0.35953,0.048549,0.2526,0.35462,-0.028023,-0.00251,-0.053476,-0.027987,0.048598,0.048585,-0.25748,0.074062,-0.10452,0.074013,0.0485,0.023029,0.30359,0.099595,-0.20649,-0.18097,0.074093,-0.1045,0.2526,-0.10455,-0.18106,-0.002521,0.15059,0.27815,-0.28298,-0.002405,0.15061,0.30364,-0.15554,0.32904,-0.15551,-0.23205,-0.05347,0.17609,0.2271,0.099583,-0.48705,-0.18102,0.86478,-0.028005,-0.13002,-0.20651,-0.07899,-0.1555,0.099583,-0.027956,0.27812,-0.38507,0.048561,0.78818,0.12504,-0.10453,0.023023,-0.078966,-0.10444,-0.38502,0.1506,0.12509,0.22708,-0.18106,0.022992,-0.13001,0.3036,0.20156,-0.33401,0.023072,-0.002412,-0.10447,0.074038,0.12502,0.25254,-0.053525,0.099534,0.22709,-0.02792,-0.28295,-0.43605,-0.12998,0.40564,0.15049,0.25258,0.30363,-0.43611,-0.12999,-0.25752,-0.10448,0.048585,-0.078977,0.099515,0.68614,0.099521,0.15052,0.048561,-0.15548,-0.07891,-0.20644,-0.10447,-0.12998,0.023047,0.073984,0.20154,-0.079008,0.4056,0.074051,-0.10449,0.048592,-0.25748,-0.18098,-0.23202,0.22708,-0.027998,0.20152,0.15054,-0.002461,0.023078,-0.027901,-0.18097,-0.10445,-0.15551,0.048458,0.22707,0.17606,-0.13002,0.048567,0.38018,-0.28302,0.12513,-0.05347,-0.33409,0.17602,-0.028011,0.35465,-0.25756,-0.232,-0.18097,-0.15548,0.35467,0.17607,-0.12999,-0.002516,-0.053525,0.12505,0.04858,0.099577,0.20161,0.023041,-0.12996,-0.3085,-0.25753,0.12503,-0.079026,0.15052,0.20152,0.25261,0.20167,-0.23201,-0.15545,-0.10449,-0.13001,0.048536,0.12504,0.022998,0.17606,-0.13,0.27813,0.074062,-0.027938,-0.10447,-0.48713,0.53315,0.5587,-0.18102,-0.35953,-0.23201,-0.25751,-0.23203,0.27812,0.048536,0.43113,0.25256,-0.25758,-0.23207,0.27811,-0.15549,-0.027938,-0.078928,0.074118,-0.15548,0.074044,0.12501,0.074026,0.074026,0.074051,0.074038,-0.12996,-0.053446,-0.23197,-0.078966,-0.10449,0.12498,-0.13005,0.40561,0.074062,-0.02795,-0.18095,-0.41056,0.22715,0.45667,-0.30858,0.22704,-0.13005,0.048525,-0.002461,-0.2575,0.15062,0.4567,-0.2065,-0.13002,0.2526,-0.028036,0.074038,-0.002472,-0.0535,0.023072,0.048555,-0.20649,-0.12996,0.25262,0.12506,0.048482,-0.18101,-0.10449,-0.002472,0.023054,-0.30854,0.20159,0.78827,0.074081,-0.028018,-0.079021,-0.18106,-0.33405,-0.2065,0.12507,0.15061,-0.053458,-0.053427,-0.15548,0.023017,0.32907,0.12503,0.099515,0.1506,-0.002448,-0.18101,0.32914,0.27815,-0.51259,-0.13,0.048482,0.20156,0.048531,-0.41057,0.60976,-0.38506,-0.33401,0.099608,0.12506,-0.002479,0.32908,-0.15556,-0.053476,0.048536,0.048536,-0.43607,0.27815,0.32915,0.023047,0.22711,-0.3341,-0.002491,-0.079021,-0.28308,-0.053451,0.048585,-0.053451,0.15062,-0.181,-0.0535,0.30358,0.20155,-0.053495,-0.05347,-0.002472,0.12509,-0.002436,-0.002448,-0.027956,-0.002479,-0.053544,-0.002485,0.2271,0.074051,-0.18098,-0.15546,-0.07899,-0.12999,0.099583,0.30358,0.12504,-0.027987,-0.028018,-0.10448,-0.078966,-0.027969,-0.10445,0.023065,0.48217,-0.38511,-0.079014,0.20158,-0.13001,-0.25751,-0.078947,-0.078935,-0.02792,-0.053451,-0.078996,0.074013,0.58413,0.15051,0.22705,0.12503,-0.23202,-0.078904,-0.20646,-0.46151,-0.2575,0.15052,0.15051,0.023023,0.12504,-0.20652,0.1251,0.22715,-0.1045,-0.078959,-0.10448,0.12502,0.60965,0.074013,-0.028018,-0.33406,-0.35954,0.30367,0.27817,-0.38503,-0.79314,0.27811,0.66065,0.073989,-0.053519,-0.18101,-0.12999,-0.10445,-0.078941,-0.25748,-0.078984,0.3036,0.25256,0.07402,0.25259,0.099546,0.023059,-0.10447,-0.20649,-0.15547,0.074075,-0.0535,-0.002503,0.25259,-0.002503,-0.28303,-0.002448,-0.10449,0.22713,-0.002436,-0.002472,-0.13001,0.25254,0.048525,-0.15552,0.0741,-0.43608,0.023065,0.17609,0.15059,0.2781,-0.002503,0.074038,-0.33409,0.074093,-0.18099,-0.18101,0.1506,0.27815,-0.18098,-0.053495,-0.18106,-0.13005,0.023035,0.074038,-0.028011,0.099588,-0.15548,-0.02792,0.38016,-0.027956,-0.002491,-0.35962,0.32912,0.22708,-0.18102,-0.20653,0.12508,-0.078904,-0.38503,-0.002461,-0.078984,0.176,-0.002516,0.20155,0.50766,0.20161,-0.053482,-0.283,-0.25751,-0.18098,-0.078984,0.12502,0.17606,-0.027987,-0.28306,0.43119,0.53319,-0.05347,-0.30854,-0.33404,0.0485,-0.20656,-0.30856,0.15057,0.55875,-0.078959,-0.12999,-0.2065,0.17609,0.20159,-0.15554,0.073995,-0.20653,-0.053482,0.27811,-0.28303,0.17609,0.023059,-0.02795,0.074044,0.023005,0.12505,-0.053458,0.023035,-0.20652,-0.35953,0.099564,-0.053446,-0.38501,0.099546,-0.079008,0.22704,0.32908,-0.33406,0.22706,-0.10448,-0.20646,0.074093,-0.86964,-0.3595,0.12507,-0.13005,0.76271,-0.61465,-0.053488,0.099564,-0.053458,0.27811,-0.43601,-0.05347,0.17604,-0.053519,0.45663,-0.027993,-0.12998,-0.002448,-0.18098,0.35462,-0.002454,-0.69108,-0.079008,-0.079008,0.76267
-0.33403,-0.38505,-0.053464,0.099515,0.32908,0.22707,0.22705,0.074075,-0.12998,-0.053458,-0.232,-0.25753,-0.027956,-0.002479,0.35458,0.25257,0.074038,0.15056,-0.18098,-0.078972,-0.2065,-0.38505,-0.078984,-0.10449,0.25257,0.17607,0.12506,0.20159,-0.053458,-0.07899,-0.20652,-0.30854,0.099546,0.023029,0.30356,0.074062,0.074044,-0.002436,-0.15547,-0.078984,-0.15548,-0.41057,-0.027993,0.20155,0.30355,0.27808,0.20159,-0.12998,0.023059,-0.10445,-0.33403,-0.20649,-0.23199,0.023029,0.35459,0.048536,0.30357,0.048555,-0.10448,0.1761,-0.38503,-0.28303,-0.053482,0.15052,0.35457,0.20158,0.12507,-0.027956,0.023072,-0.28298,-0.25753,-0.33403,-0.15548,0.12504,0.20155,0.15057,0.15056,0.023047,-0.002454,-0.078972,-0.20649,-0.30852,-0.10448,0.023023,0.20152,0.22708,0.048555,0.074062,-0.078953,-0.10447,-0.23201,-0.28302,0.048536,0.074013,0.17605,0.15058,0.12507,-0.078953,-0.002454,-0.15549,-0.181,-0.23202,-0.13001,0.12505,0.12504,0.38009,0.17605,0.22708,0.023059,-0.25748,-0.33401,-0.38503,-0.12998,0.09954,0.4056,0.12504,0.15056,0.074069,-0.18098,-0.053464,-0.38504,-0.25754,-0.25752,0.17604,0.17606,0.35459,0.17608,-0.002443,-0.053439,-0.33401,-0.30851,-0.35953,0.048536,0.20155,0.25255,0.22706,0.048555,0.074051,-0.053458,-0.027987,-0.2065,-0.35954,-0.2065,-0.002461,0.15057,0.17607,0.12507,-0.002461,0.12507,-0.15549,-0.002461,-0.35953,-0.053488,0.074033,0.35459,0.17607,0.17606,0.023047,-0.10447,-0.23199,-0.23201,-0.38504,-0.18099,0.15054,0.32907,0.20157,0.17607,0.09957,-0.002448,-0.078959,-0.35954,-0.23201,-0.12999,0.17604,0.27806,0.22706,0.15057,0.12509,-0.053458,-0.2575,-0.43604,-0.38506,-0.1045,0.25257,0.25257,0.25259,0.023054,0.15058,-0.15548,-0.078972,-0.30851,-0.10449,-0.15549,0.20155,0.30356,0.17607,0.17611,0.15058,-0.078972,-0.12998,-0.20652,-0.35955,-0.05347,0.02301,0.27808,0.2271,0.12507,-0.027962,-0.078947,-0.20649,-0.20652,0.023047,-0.053482,0.25255,0.27808,0.22707,0.22707,0.099577,-0.12996,-0.15548,-0.3085,-0.58908,-0.12999,0.12504,0.22705,0.3801,0.17607,0.12507,-0.053451,-0.12998,-0.2575,-0.46154,-0.02798,0.17605,0.25255,0.25258,0.023054,0.09957,-0.28298,-0.15549,-0.30851,-0.35956,-0.02798,0.099521,0.25256,0.22709,0.15057,0.20159,-0.10448,-0.18098,-0.2065,-0.41055,-0.002479,0.15054,0.25256,0.32912,0.048555,0.12508,-0.10446,-0.30851,-0.33402,-0.46156,-0.053488,0.20155,0.40557,0.3036,0.25257,0.099564,-0.053421,-0.25748,-0.30849,-0.38504,0.02301,0.25256,0.25254,0.30358,0.12507,0.048561,0.023059,-0.23199,-0.13,-0.23202,-0.18101,0.12505,0.074057,0.27808,0.15058,-0.027969,0.048567,-0.28301,-0.15549,-0.38502,-0.12999,0.20156,0.099528,0.32907,0.12505,-0.12999,0.099595,-0.2575,-0.078984,-0.30853,0.023041,0.17605,-0.02798,0.25257,-0.053458,-0.053451,0.04858,-0.15548,-0.20652,-0.2065,0.09957,0.17604,0.27805,0.099546,0.074038,0.12508,-0.10447,-0.10447,-0.51254,-0.33404,-0.2065,0.17604,0.20156,0.17606,0.20158,0.023054,-0.002454,-0.10447,-0.28303,-0.078977,-0.23202,0.20155,0.17607,0.023017,0.099577,-0.027962,0.12508,-0.05347,-0.12999,-0.46159,-0.25753,-0.002485,0.20156,0.023047,0.22708,-0.10447,0.15059,-0.078972,-0.15548,-0.38505,-0.13,0.12503,0.25254,0.50763,0.074044,0.15057,-0.18096,-0.12998,-0.35952,-0.38506,0.048536,0.12504,0.17607,0.048561,0.20158,-0.027944,-0.027962,-0.10447,-0.33404,-0.18101,-0.13,0.22704,0.38008,0.22706,0.2781,-0.18097,-0.078959,-0.20649,-0.38503,-0.25754,-0.25753,0.30358,0.20158,0.25257,0.12508,-0.15548,-0.002436,-0.18097,-0.13,-0.078984,-0.12999,0.17604,0.20156,0.09954,0.3546,0.099564,-0.002461,-0.18098,-0.53804,-0.25749,-0.12998,0.15054,0.17605,0.17604,0.27809,0.074057,0.074051,-0.12997,-0.30854,-0.12998,-0.181,0.30358,0.048531,0.3291,0.048561,0.12507,-0.053458,-0.15548,-0.35952,-0.18101,-0.1555,0.22705,0.099552,0.27808,0.15057,0.048549,-0.078941,-0.28301,-0.41053,-0.28301,0.12505,0.20156,0.35457,0.17606,0.27808,-0.078972,0.15057,-0.25752,-0.18098,-0.43607,-0.002472,-0.12999,0.17607,0.023047,0.25258,-0.027962,0.25259,-0.2575,-0.15549,-0.38504,-0.002461,0.17604,0.30358,0.22707,0.15056,0.048567,-0.05347,-0.12998,-0.23201,-0.33404,-0.078984,0.074038,0.22708,0.20157,0.20157,-0.002448,0.074069,-0.053476,-0.53811,-0.33401,0.099577,0.17607,0.22706,-0.053495,0.22709,-0.12998,-0.02798,-0.46155,0.25261,-0.30855,0.048506,-0.13001,0.023035,0.023059,0.30358,0.15057,0.074075,-0.20651,-0.12998,-0.38505,-0.15549,-0.053495,0.30359,0.3291,0.20158,0.0977,-0.004307,0.1487,0.048573,0.27812,-0.078972,-0.028023,-0.10452,-0.35956,-0.15551,-0.15546,-0.002467,-0.10447,0.048561,0.074106,-0.002479,0.17603,0.25258,0.30359,-0.13,-0.053488,-0.30851,-0.053446,0.074069,-0.027974,-0.02798,-0.07899,-0.3341,0.20158,0.25258,-0.053439,0.27815,-0.25751,0.023084,0.023065,-0.13,-0.23207,-0.028023,-0.18105,0.048512,0.12511,0.32917,-0.002418,-0.10446,-0.002454,-0.23203,0.22705,-0.13004,0.2781,0.048506,-0.078977,-0.48708,-0.078947,0.27819,0.048555,0.15054,-0.18106,0.0485,0.023047,-0.12998,-0.053451,-0.10445,0.023059,-0.002443,-0.12998,0.023041,0.12499,0.022992,-0.002497,0.17607,-0.078972,-0.053451,-0.12994,0.023078,-0.10444,-0.10451,-0.053519,0.09951,0.15055,0.17607,-0.002467,-0.002443,-0.66563,0.15062,0.27815,0.25259,0.40561,-0.48714,-0.10451,-0.12999,-0.13001,-0.13,-0.13,0.53322,-0.002436,0.17609,-0.002491,-0.10453,-0.20653,-0.1045,-0.20649,0.32915,-0.002418,-0.053451,0.20157,0.02301,-0.053531,-0.41054,0.023005,0.12507,0.048536,-0.027969,-0.027956,-0.10447,0.12509,-0.02795,0.125,0.022998,-0.13001,-0.002461,-0.12996,0.15057,0.27813,-0.46154,-0.15548,0.25263,0.22706,-0.20656,-0.18105,-0.18102,-0.027962,0.2526,0.20163,-0.027969,-0.053464,-0.053476,0.023023,0.27808,-0.13002,0.074033,-0.002443,-0.41055,0.048567,0.32917,-0.10449,0.023029,-0.18108,-0.23207,0.099552,-0.20653,0.20161,0.35467,-0.078959,0.04858,0.099601,-0.28306,-0.079057,0.3801,-0.078977,-0.20653,-0.078984,0.023054,-0.053458,-0.18098,-0.41057,0.099559,0.60967,-0.053495,0.15057,-0.20654,0.099577,-0.027944,-0.20649,-0.15547,-0.12998,-0.10454,-0.18109,1.4769,-0.25756,-0.41058,-0.2575,-0.30852,-0.078935,0.048555,-0.20646,0.099534,-0.10453,-0.10455,0.22708,0.2526,0.12509,-0.053458,0.023059,-0.10447,0.048549,-0.12999,0.048506,-0.1045,-0.1045,0.048531,-0.10446,-0.027938,0.17612,0.048567,-0.00243,-0.079014,0.074002,-0.18109,-0.027987,0.02301,-0.027931,0.074075,-0.12995,-0.10445,0.15062,-0.078996,-0.15554,0.02301,-0.053482,-0.23203,0.22707,0.5332,-0.15551,-0.15551,0.20161,-0.232,0.12504,0.023047,-0.46162,-0.6146,0.048536,0.074093,-0.2065,0.22712,-0.30852,0.12507,0.074044,-0.10452,0.38012,-0.027987,0.022998,-0.20648,-0.41052,0.48219,-0.41051,-0.25753,-0.002503,0.074008,0.83919,-0.86972,0.17609,0.83929,-0.86966,0.27815,0.22717,-0.15552,0.25252,0.15052,0.94124,-0.28307,-0.2575,0.2271,-0.10444,0.074026,-0.053409,0.27811,0.22705,-0.18108,0.55864,-0.002461,-0.20648,-0.07899,-0.10444,0.55869,-0.15546,-0.027993,-0.079063,-0.002479,0.3801,0.20163,0.20163,-0.43603,0.1761,-0.15549,-0.20649,-0.38509,0.3801,0.32908,-0.28307,-0.20653,-0.027931,0.074062,-0.28298,-0.25748,0.048555,0.22705,0.1505,-0.028029,0.02301,0.20164,0.0741,-0.053433,-0.053464,-0.28304,0.099546,0.38016,0.074013,-0.71672,0.3036,0.023078,-0.38506,-0.30852,-0.1555,-0.18096,-0.18099,-0.23203,1.1453,0.099479,0.25254,-0.002472,-0.41055,0.099583,-0.33402,-0.20646,-0.053415,-0.25755,-0.33412,0.25258,0.50766,0.2271,-0.10451,-0.027931,-0.58912,-0.25748,0.81379,-0.15551,0.099485,-0.079033,-0.002491,-0.053476,-0.30853,0.55871,-0.002423,-0.23204,-0.05347,-0.05347,0.074013,-0.00254,0.074026,-0.078966,-0.053464,0.30364,-0.027944,0.04858,-0.18097,-0.18105,-0.028023,0.48211,-0.079039,0.25257,0.04858,-0.232,-0.38499,-0.23197,-0.12996,0.17604,0.38008,-0.13005,0.22707,0.45667,-0.53809,-0.43606,0.30364,-0.10451,-0.10449,0.12507,0.30358,-0.13002,-0.002491,-0.12998,0.35464,-0.20647,0.074062,0.1506,-0.15553,-0.18101,0.15051,-0.002521,-0.1045,-0.002454,0.12511,-0.12998,0.023096,-0.02795,-0.15546,-0.15553,0.099503,0.30356,0.20154,0.048555,-0.053464,-0.23197,0.048573,-0.12996,0.30363,0.27811,-0.3341,-0.56367,-0.028011,0.8648,0.074057,0.12512,-0.25752,-0.28302,-0.46159,0.15061,-0.002516,-0.079008,0.25257,-0.002461,0.17609,0.074111,0.023047,-0.078966,-0.07899,0.25259,-0.028018,-0.13002,0.048561,-0.20652,-0.283,0.099601,0.30362,0.023065,-0.23204,-0.002479,0.22701,-0.002503,-0.10452,-0.053439,-0.15548,-0.2065,0.27816,0.25268,0.20164,-0.15556,-0.43616,-0.079045,-0.053495,-0.002467,-0.283,0.12508,0.22713,0.17612,-0.23202,0.023035,-0.10455,-0.20658,0.43115,0.22712,-0.18101,0.17613,-0.25748,-0.053451,-0.078972,-0.20653,-0.15557,-0.18105,-0.28304,0.45666,0.25265,0.25259,0.25265,-0.23202,0.074087,0.023023,-0.30862,-0.30858,-0.15549,0.074038,0.40565,-0.027969,-0.027938,-0.002418,-0.053433,-0.43602,0.25257,-0.3851,0.20152,0.60968,-0.002485,-0.30852,0.023059,-0.078959,0.099583,-0.027974,-0.10453,-0.002491,0.15057,0.023017,0.12509,0.30365,-0.23198,-0.23198,-0.2575,-0.10449,0.15051,-0.10453,0.20156,0.074044,-0.002436,-0.078959,-0.181,0.53324,-0.15552,-0.28305,0.32907,0.074044,-0.1555,0.3036,-0.28301,-0.15548,0.17609,-0.05347,-0.20656,0.074075,0.099528,-0.053488,-0.30856,0.15054,0.53321,0.023059,-0.12994,-0.23202,-0.02792,-0.30856,-0.028018,0.27808,0.12506,-0.002497,0.22707,-0.25749,-0.078972,0.074118,-0.30852,-0.053476,0.76272,0.55865,-0.079014,-0.18106,-0.33404,-0.28303,0.17608,0.023078,-0.25752,0.074044,0.20156,-0.028018,-0.027962,0.048549,-0.078935,-0.2575,0.074075,0.48219,0.27812,-0.23206,0.25254,-0.58917,0.022986,-0.002485,-0.053451,0.048592,-0.33399,-0.28298,0.12513,0.15058,0.099497,0.048463,0.35461,0.074008,-0.12999,-0.12998,-0.10447,-0.10444,0.023035,-0.028005,0.20153,0.074051,0.35463,-0.28303,-0.8442,0.22714,0.32915,0.22715,-0.12998,-0.15551,0.78822,0.12504,-0.35961,-0.10453,-0.23203,-0.078941,-0.23201,-0.18097,0.099577,0.27811,0.40557,-0.20654,0.22708,0.12508,-0.078966,-0.28299,0.15062,0.22712,-0.078984,-0.10449,0.099491,-0.028029,-0.20659,-0.002454,0.099577,-0.23198,-0.18098,0.0741,0.048567,0.099564,0.099503,0.074033,0.38014,-0.4106,0.50765,-0.41054,-0.20648,0.099613,-0.002443,-0.20654,0.83923,0.22703,0.22704,-0.23205,-0.25751,-0.15546,-0.20649,-0.10444,-0.3085,0.09954,0.15054,0.32908,0.022992,0.022992,0.25262,0.023023,0.1251,-0.002461,-0.053421,-0.35951,-0.1045,-0.002534,-0.10448,0.20161,0.048567,-0.002479,0.20161,-0.25754,-0.46159,0.048536,0.048482,0.023041,0.45666,-0.30854,0.12509,-0.078966,0.38018,0.5332,-0.30851,-0.56365,-0.20656,-0.13005,-0.13002,0.53315,-0.12998,0.074081,-0.15546,-0.20647,-0.2065,-0.18101,0.1505,0.50766,0.35461,-0.10449,-0.20649,-0.23198,-0.078941,-0.10449,0.12505,0.38006,0.074013,-0.23205,-0.25755,0.12509,0.048536,-0.02792,-0.02792,-0.053433,-0.027925,0.048518,-0.079057,0.074002,0.3801,0.023059,-0.23203,-0.12998,0.27814,-0.027938,-0.15546,-0.48711,0.40561,0.43111,0.25257,0.074044,-0.48705,-0.30852,-0.12996,-0.053488,-0.078972,-0.23205,0.25254,0.074033,0.71174,-0.30853,0.09957,0.04858,-0.10444,-0.20649,-0.10449,-0.18105,0.30356,-0.028078,0.022998,-0.1045,-0.002418,-0.078923,-0.43604,0.15062,0.86482,-0.12999,0.073965,-0.18106,-0.00251,-0.13005,0.2016,0.099552,-0.027969,-0.12993,-0.18094,-0.1555,0.12506,0.17604,0.099515,0.15057,-0.20654,0.023078,-0.38501,-0.35954,-0.02795,0.73726,0.45662,-0.28307,-0.002503,-0.20656,-0.25753,0.17609,0.20164,-0.10445,-0.99723,0.5332,0.66067,-0.028011,0.022998,-0.23202,-0.12999,0.074081,-0.23202,0.099588,-0.20647,-0.002485,0.15055,0.022998,-0.002497,0.2271,-0.078984,0.074087,-0.20652,-0.33404,0.27814,0.074044,0.09951,-0.20656,-0.18101,0.22709,-0.002448,0.25265,-0.181,0.023078,-0.28303,-0.002467,0.45658,0.12504,0.074026,-0.33405,0.12508,-0.28298,0.1506,-0.41054,0.27808,0.73725,-0.15557,-0.33408,-0.30858,0.68627,-0.10447,-0.30853,-0.23202,0.023084,-0.12999,0.048525,0.38006,0.22704,0.02298,-0.18103,-0.41054,0.55877,-0.487,0.023121,-0.23202,-0.15553,0.073984,0.30359,-0.15553,0.20158,-0.002448,0.15056,-0.078959,0.12509,0.15058,-0.30854,0.1505,-0.23205,0.17607,0.099552,-0.1555,-0.20647,0.02309,0.12509,0.023072,-0.027974,0.12502,-0.41063,0.17606,0.58422,-0.23205,0.48222,-0.002436,-0.078953,-0.5381,-0.35959,-0.028005,-0.20655,-0.10449,0.12505,0.15059,-0.002443,0.20163,-0.027962,0.32915,0.35468,-0.053531,0.073989,0.099497,-0.18102,-0.027969,-0.12994,-0.23201,-0.15548,-0.027913,-0.15547,0.17603,0.17604,0.30356,0.099546,0.17606,-0.35952,0.17612,0.15064,-0.12998,-0.20652,-0.18107,-0.028042,0.25258,0.30361,-0.18101,-0.18098,-0.12995,-0.15543,-0.41055,0.30366,0.32907,-0.00251,0.048506,0.17603,-0.12998,-0.12998,0.12507,-0.053446,0.023029,-0.18101,-0.13002,-0.079008,0.17604,0.023029,-0.002448,-0.078966,-0.027931,0.099613,-0.25751,-0.25754,0.35454,0.40561,0.09951,0.20153,-0.10445,-0.18095,-0.41054,-0.027931,0.22714,0.25262,0.073984,0.048487,-0.10454,-0.079033,0.048543,0.074069,-0.15548,0.50776,-0.53806,-0.28305,0.20155,-0.053495,0.12505,0.12506,-0.027962,-0.002454,0.12508,-0.15546,-0.18097,-0.079002,0.32907,-0.15557,-0.002503,0.63521,-0.002423,-0.46153,-0.18101,-0.25753,-0.43608,0.048512,0.50764,0.60971,0.20158,-0.15551,-0.15549,-0.15552,0.074087,-0.15548,-0.10447,0.15058,0.17602,0.074013,0.12503,0.3036,-0.002461,-0.027962,0.023084,-0.15549,-0.15548,0.023023,0.099485,-0.10452,-0.079002,0.048561,-0.027925,0.32914,-0.25748,-0.027925,0.074081,0.15058,-0.18108,-0.18106,-0.027987,0.023035,-0.053482,-0.002412,0.25266,-0.002443,-0.02795,0.048518,0.17601,-0.33409,0.099546,0.17606,-0.28302,-0.18098,-0.053427,0.074111,0.25264,-0.41057,0.22705,0.22703,0.099559,0.074057,-0.079008,-0.232,-0.18098,-0.18098,0.048555,-0.1045,0.20158,-0.078977,-0.053495,0.5587,-0.05347,-0.23201,-0.027962,0.099595,0.32914,-0.66568,-0.28307,-0.10449,0.12508,0.27809,0.30358,0.074075,0.20164,-0.2065,-0.027962,-0.00251,0.17607,-0.30855,-0.002461,0.023059,-0.18102,-0.10446,0.023047,-0.30852,-0.23202,0.81376,0.074013,-0.053525,0.099534,-0.13,-0.002479,-0.232,-0.078972,-0.002399,-0.23198,-0.18101,0.4056,0.022998,-0.13001,0.048531,-0.05347,0.3036,0.17611,0.023054,-0.18097,-0.18101,-0.002497,0.023005,0.35456,0.12508,-0.51257,-0.10444,0.48222,0.15054,-0.05347,-0.053513,0.02301,-0.18105,-0.05347,-0.027969,0.12507,-0.053439,0.30365,0.17607,0.048561,-0.10449,-0.079033,-0.079033,0.20158,-0.078984,-0.15547,-0.15545,-0.053433,-0.002448,-0.20652,0.43115,0.15051,0.023017,-0.30855,-0.43609,0.35467,0.023047,-0.027944,0.023047,-0.2575,0.53319,0.20155,-0.18106,-0.15551,-0.30856,0.023035,-0.027938,0.35468,-0.25749,-0.12998,-0.23207,0.38003,0.074033,0.074002,0.048536,0.023047,0.023103,0.12512,-0.23196,-0.15547,-0.18101,-0.10453,0.32908,0.074038,0.0485,-0.2065,-0.15551,-0.002436,0.048561,0.074081,-0.027974,0.12503,-0.079008,0.099546,-0.13004,0.074062,0.20163,0.20163,0.023103,-0.33401,-0.20653,0.022986,-0.053531,-0.35962,0.53317,0.99235,-0.38506,-0.078959,-0.33405,-0.28303,-0.13002,0.048506,0.27809,-0.027969,0.099552,0.12507,-0.02792,0.099577,-0.00243,0.048555,0.20159,-0.10453,0.099534,-0.13,-0.20653,0.023047,0.048585,0.048555,-0.20649,-0.12999,-0.053476,0.30356,0.074013,-0.1555,0.17609,-0.283,0.20164,0.15061,0.15059,-0.053482,-0.30861,0.099521,0.45661,-0.002461,-0.43608,0.074069,-0.078959,-0.002443,-0.002443,-0.20648,-0.28304,0.35457,0.45663,0.048543,0.22709,-0.10446,-0.15549,-0.283,-0.15549,0.074081,-0.10449,-0.002528,0.17601,0.30353,0.099583,-0.23203,0.099619,-0.053433,-0.35952,-0.078935,-0.15553,0.48211,-0.002503,0.022998,-0.12999,0.68623,-0.12995,-0.38505,0.074062,-0.1045,-0.028018,0.023029,-0.027998,0.20159,-0.232,-0.027969,0.099583,0.048567,-0.027938,0.22713,-0.053506,0.099521,0.099528,-0.002534,-0.15552,0.048592,0.27812,0.04858,-0.38501,-0.12999,-0.002461,-0.3341,0.50763,0.2526,-0.002503,0.074051,-0.002448,-0.10449,-0.15546,-0.053458,-0.20653,0.20156,0.099534,-0.10451,0.048573,0.2016,-0.002454,-0.053464,-0.05347,0.15059,-0.15551,-0.20657,-0.02798,0.3036,-0.10451,0.023059,0.074087,0.17612,-0.2575,0.12508,0.023023,0.4566,-0.15556,-0.002491,-0.15548,-0.027969,-0.25752,0.27814,0.30363,-0.002461,-0.10451,0.099521,-0.10447,-0.079002,0.074069,-0.10449,-0.12994,0.023054,0.09957,0.38016,0.048506,0.17603,-0.15554,0.02301,0.074075,0.099552,-0.12996,-0.41055,-0.05347,0.32919,-0.027993,-0.00251,-0.053531,0.023023,-0.078972,-0.02795,0.048592,0.023072,-0.10448,-0.35953,-0.02798,0.48212,0.17609,-0.15555,-0.05347,0.17612,-0.15549,-0.33406,0.27815,0.35465,-0.078984,-0.41061,-0.20656,0.15053,0.048518,0.02309,0.50777,-0.18094,-0.053464,-0.18101,-0.15552,0.12499,0.15052,-0.002467,-0.23202,0.30364,-0.02792,-0.10447,-0.053421,-0.002448,0.048512,0.023005,0.12501,-0.079014,-0.027987,0.20158,0.12511,-0.053421,-0.28304,-0.078941,0.55869,0.048458,-0.23207,-0.20656,0.22708,-0.12997,0.3292,-0.18098,-0.23197,-0.38502,-0.078996,0.73717,0.38011,0.07402,-0.35959,0.048567,-0.027962,0.32912,0.02309,-0.30852,-0.027956,0.023035,0.07402,0.023029,0.048518,0.048549,-0.053427,0.074062,-0.23202,-0.23197,0.30368,0.22706,-0.41063,-0.002485,0.074038,-0.20649,-0.18099,-0.053482,-0.15546,0.22708,0.35464,0.12501,0.022998,0.22707,0.15056,-0.20646,-0.28299,-0.002394,-0.10444,-0.1555,0.099552,-0.15556,-0.053531,-0.23207,0.17611,0.1506,0.12511,-0.12996,-0.30853,-0.1045,0.45666,0.71167,-0.53817,-0.002479,0.099559,-0.25751,-0.027895,0.074087,-0.33405,-0.002461,-0.13002,0.20154,0.12507,-0.002461,0.048573,0.2781,0.32915,-0.078984,-0.18098,-0.15548,-0.028011,0.20153,0.12502,-0.078996,-0.078972,-0.002461,0.02309,0.048561,-0.12996,-0.078966,-0.027993,-0.028011,-0.079033,-0.002479,0.15059,0.15057,0.12508,-0.18097,0.38017,-0.43604,0.074033,0.35459,-0.43612,0.02301,-0.078977,-0.027956,0.94135,-0.64014,-0.002454,-0.28302,-0.25756,0.073984,0.25259,0.27809,0.048536,-0.20649,0.22713,0.30368,-0.10447,-0.002467,-0.30857,0.073995,-0.002528,0.22706,0.074044,-0.078947,0.2016,-0.10445,-0.053458,-0.28297,-0.2065,0.22704,0.0485,0.17604,0.12507,0.074051,-0.078972,0.35467,-0.35953,0.1251,-0.28305,0.048525,-0.28308,0.27812,-0.028011,-0.20651,-0.027938,0.048531,0.32919,-0.053464,0.17606,-0.10456,0.048506,0.12504,-0.027969,-0.18101,-0.23197,-0.07891,0.20162,-0.38507,0.023047,0.78817,-0.38508,-0.12998,-0.35959,-0.027962,0.58425,-0.38508,-0.078953,-0.18098,-0.15553,0.17604,0.30356,0.074033,0.074051,-0.078972,-0.027925,-0.053446,-0.18096,0.023054,0.023029,-0.053562,0.25256,0.40562,-0.13,-0.078928,-0.43604,-0.002436,-0.053446,-0.078984,-0.15553,0.22703,0.3801,-0.079033,0.048531,0.22709,0.27815,-0.053451,0.048585,-0.23201,-0.18103,-0.20655,0.048525,0.55866,-0.23202,-0.078977,-0.078959,-0.10447,0.048598,-0.10447,-0.053482,0.17602,0.15052,0.023035,0.17607,-0.053433,-0.002418,-0.2575,-0.002461,-0.12997,0.099528,0.0485,-0.028029,0.2526,0.3036,-0.053451,-0.12998,-0.027925,-0.2575,-0.28304,-0.078984,0.22705,0.074033,0.38008,0.27809,0.048585,-0.002418,0.22716,0.074069,-0.283,-0.15553,-0.18103,-0.25756,-0.13001,0.20158,-0.027956,-0.053476,0.048585,0.12507,0.58419,-0.13003,0.0485,-0.027998,-0.181,0.074062,0.1761,-0.18098,-0.00243,-0.12994,0.12509,-0.13004,0.125,-0.15556,0.32908,-0.053476,0.20159,-0.078941,-0.23197,-0.10444,0.023059,-0.1045,0.073965,0.20156,0.38008,0.048567,-0.20652,-0.10447,-0.15548,-0.20652,-0.10446,-0.078996,-0.002497,-0.02798,0.09954,-0.078972,0.048549,0.074087,0.074062,0.09957,-0.078996,-0.028018,0.20153,0.38006,0.099564,-0.002436,-0.33401,-0.23197,0.45672,-0.28302,-0.35954,0.048518,0.20155,0.073995,-0.13002,-0.002454,-0.1555,0.048561,-0.25754,0.35468,0.45668,-0.027974,-0.33409,0.074044,-0.1045,-0.053464,-0.002454,0.09957,-0.053458,0.023029,-0.12999,0.27809,0.099521,0.17604,0.023047,-0.002454,-0.30849,-0.43607,-0.053421,0.048567,-0.00243,-0.028018,0.074002,0.17605,0.3036,-0.027962,-0.053482,-0.2575,-0.00243,-0.28303,0.023072,0.20156,0.02298,-0.13005,0.32912,0.048567,0.1506,-0.078923,-0.38502,-0.30851,-0.25753,0.30355,0.78816,-0.053525,-0.07899,-0.2065,-0.078972,0.023084,0.30363,-0.25748,-0.02798,-0.15553,0.176,-0.1045,0.09954,0.023072,0.048549,-0.053427,-0.15548,0.023059,0.023054,0.20155,-0.10455,0.25256,-0.1555,-0.25753,0.50772,-0.12997,-0.38506,-0.078953,0.20159,-0.3851,0.12503,0.12504,-0.18103,-0.02798,0.074118,0.074087,0.1251,-0.12997,-0.181,-0.002479,0.099497,0.023017,-0.58916,0.8138,0.22713,0.17612,-0.46156,-0.15549,-0.10449,-0.10451,0.048506,-0.002503,0.15053,0.074057,0.2016,0.40569,-0.053446,-0.078953,-0.28303,-0.028005,0.048487,0.023017,0.023035,0.09957,-0.12998,0.074106,-0.35957,-0.35953,0.15063,0.32913,0.25258,-0.028005,-0.23208,0.09957,-0.027993,-0.15546,-0.078972,0.074062,-0.027969,-0.1045,0.048512,0.17607,0.1761,0.074075,-0.18101,-0.02795,-0.18097,-0.078984,0.099552,-0.053513,0.22705,-0.078996,-0.38505,-0.25754,-0.027956,0.4822,0.12508,0.15059,-0.30851,-0.15551,0.12505,-0.053525,-0.18106,0.2526,0.48221,-0.28303,-0.35956,0.074087,-0.10446,-0.13001,0.25256,0.048487,0.43113,-0.027962,-0.027969,-0.2065,-0.002443,0.09957,-0.05347,-0.078996,0.09951,-0.078972,-0.027987,0.023047,-0.078947,0.2271,-0.053464,-0.20649,0.30363,-0.23207,-0.13004,0.022998,-0.30858,0.55869,-0.027938,-0.20649,-0.10449,-0.28302,-0.38507,0.68621,0.22707,0.27811,-0.18102,-0.15547,-0.20652,-0.51259,-0.05347,0.81379,0.20162,-0.053513,0.22704,-0.15554,-0.18105,-0.23202,0.35465,-0.10447,-0.10444,0.023078,-0.027944,-0.10453,-0.28308,-0.002491,0.45666,-0.23201,0.048555,-0.078941,-0.30851,0.30363,0.074062,-0.079014,0.17602,-0.002497,-0.053519,-0.053488,0.63526,-0.15548,-0.35951,0.27815,-0.51257,-0.002485,-0.13004,0.099552,-0.053513,-0.15551,0.17609,0.22711,-0.15549,-0.18098,-0.13001,-0.027993,0.32908,0.43117,-0.25756,0.12509,-0.28303,-0.053458,-0.35953,-0.28302,0.66075,0.17603,-0.13003,-0.13005,0.12505,-0.23201,0.27814,-0.10447,-0.053464,-0.002448,0.27814,-0.3341,-0.053531,0.074038,0.048518,0.3801,-0.12996,-0.12998,-0.18094,-0.053446,-0.10447,-0.18104,0.17604,-0.053531,0.32908,0.15057,0.17611,-0.18099,-0.232,0.04858,-0.10447,-0.078984,0.048512,-0.002491,-0.002479,-0.053476,-0.33403,-0.28303,0.023047,0.35465,0.60971,0.099546,-0.18105,-0.25757,0.048525,-0.002461,-0.10449,0.30366,-0.20649,0.023108,-0.28303,0.22707,0.15051,0.022998,-0.0535,0.099552,-0.15548,-0.20652,-0.053409,-0.12998,-0.002454,-0.028005,0.099521,0.074026,-0.18105,0.12509,0.40566,-0.18098,0.25262,-0.28303,0.09957,-0.15554,-0.13004,-0.3596,0.023041,0.60973,0.048543,-0.334,-0.078947,-0.053421,-0.41057,0.048543,-0.002546,0.022998,0.20155,0.30363,0.074087,-0.30853,-0.12996,0.58425,-0.33402,-0.15554,-0.13005,0.048512,0.02301,0.023065,-0.25754,0.25264,0.25262,0.048555,-0.13,-0.30858,0.074038,0.15056,-0.181,0.099577,0.30365,-0.15549,-0.078947,-0.002443,0.023035,0.073977,-0.053525,0.074013,0.023047,-0.12999,-0.053446,-0.18098,0.22715,0.023054,-0.002448,-0.027987,0.09951,-0.15551,0.30359,-0.002454,-0.027969,-0.10446,-0.30852,-0.027944,0.048536,0.25254,0.15054,-0.02798,-0.13,0.53321,-0.61464,-0.18101,0.25267,-0.43604,0.074051,0.048549,-0.13005,0.15052,0.023059,0.099552,0.12506,0.25263,-0.28301,-0.12996,-0.18097,-0.25756,0.099497,0.25258,-0.13005,0.12507,0.20164,-0.46154,-0.078941,-0.15546,-0.078977,-0.079021,0.023017,-0.079033,-0.002503,0.94134,-0.33403,-0.12997,0.02309,0.12509,-0.23204,0.048536,-0.38511,-0.20655,0.40567,0.048573,-0.027969,-0.12997,-0.1555,0.023041,-0.12999,0.048506,0.099521,0.20156,0.30361,-0.15546,-0.43604,-0.20645,0.099564,0.17607,0.07402,0.048506,0.048518,-0.15555,0.023059,-0.33401,0.17612,-0.15546,-0.12996,-0.10447,0.15057,0.17603,0.17601,0.048518,0.15056,0.048561,-0.10446,-0.56358,-0.41053,0.38018,0.38016,0.12498,-0.10453,-0.079026,-0.027993,-0.00243,-0.15548,0.1251,-0.10445,-0.053458,-0.10449,-0.027993,0.15054,-0.028018,0.35459,0.50771,-0.28303,-0.02795,0.074106,-0.41055,-0.66562,-0.078984,0.176,-0.15556,0.15057,-0.2065,-0.053451,0.40568,-0.00243,-0.027944,-0.02795,-0.002521,0.048494,0.20153,-0.05347,-0.078984,-0.30851,-0.027938,0.30368,-0.41056,0.17611,0.3801,-0.20656,-0.00251,-0.10447,-0.33405,-0.12998,-0.28301,0.0741,0.22716,0.12504,0.17602,0.40558,0.2781,-0.027974,-0.078996,-0.30851,-0.12999,-0.12998,-0.10447,-0.078972,-0.12999,-0.18103,0.27807,0.20159,0.27809,-0.15551,-0.10449,0.32916,-0.10446,0.15059,-0.15553,-0.58921,0.048512,0.38014,0.023029,0.074106,-0.053439,-0.25753,-0.28298,0.15057,0.22709,0.073995,0.048518,0.22705,-0.58913,-0.1045,0.43124,-0.053446,-0.28298,-0.07899,-0.028011,0.048506,0.20156,0.22705,-0.002472,-0.33406,0.27815,0.17612,-0.05347,0.074069,-0.15555,-0.43613,0.099546,0.22707,0.074069,-0.13,-0.30851,-0.053446,0.074075,0.099552,0.8648,-0.18105,-0.51263,-0.20655,0.15057,0.023041,0.099588,-0.053446,0.048543,-0.10449,0.074044,-0.18106,-0.25753,-0.23206,0.25263,0.48219,-0.334,-0.18098,0.04858,0.023041,0.20153,-0.20656,-0.28305,-0.1045,-0.002405,-0.078947,-0.078953,0.48219,0.048536,-0.56366,0.27807,0.55869,-0.35959,-0.20655,0.27815,-0.10447,0.023078,-0.15546,-0.181,-0.20652,-0.053513,0.12499,-0.46162,0.17608,0.60972,1.2984,-0.18101,-0.81866,-0.58908,-0.30849,0.074026,-0.23208,0.099521,0.15054,0.12502,-0.078947,-0.027944,-0.02792,0.074093,0.048531,0.15056,0.60967,-0.079033,0.099559,-0.02798,-0.2575,0.048598,-0.41058,-0.053446,0.22711,-0.25758,0.27807,-0.027987,-0.053549,-0.027969,-0.2575,-0.33401,0.63529,0.25265,-0.15551,-0.18104,-0.10456,0.22705,-0.46161,0.048561,0.55873,0.074093,-0.078996,-0.35952,-0.23201,-0.028005,0.0485,0.022998,0.20158,-0.002443,-0.027925,-0.12995,-0.10445,-0.18098,-0.027993,0.073989,-0.028018,0.15051,-0.002479,0.30363,-0.18101,0.099595,-0.23198,-0.15548,-0.30854,0.15056,0.15052,-0.10449,0.22708,-0.20656,-0.10446,0.43119,-0.1045,-0.20649,-0.30855,0.22704,0.20156,0.048525,0.22704,0.4312,0.099619,-0.23199,-0.53806,-0.12995,0.048531,0.30355,-0.15557,0.099515,-0.02798,-0.23202,0.17611,-0.23197,-0.20647,-0.18098,-0.15548,0.17602,0.30355,0.15052,-0.078996,-0.15547,0.17614,0.023084,-0.28299,-0.25748,-0.10453,-0.33412,0.17607,1.1453,-0.43613,-0.43609,-0.25753,-0.15545,0.15062,0.15059,0.04858,-0.20656,0.022974,0.3036,0.58419,-0.027969,-0.53809,0.074093,0.35465,-0.4871,0.023059,-0.18104,-0.13005,0.25262,0.048512,-0.10446,-0.078966,-0.12994,-0.027938,-0.053421,0.12504,0.099521,0.099485,-0.028042,0.48216,0.17607,-0.30847,-0.3595,-0.07899,-0.027938,-0.232,-0.18104,-0.18103,0.20157,0.022998,0.2526,0.15059,-0.1555,-0.002436,0.17609,0.074069,-0.079026,-0.79322,0.40565,0.78826,-0.05347,-0.30853,-0.38502,-0.23201,-0.30849,0.09957,0.32909,-0.25758,-0.028018,0.17607,0.2526,-0.30851,0.04858,0.30366,0.32917,0.15057,-0.15554,-0.079045,-0.23207,-0.28305,-0.078959,-0.078953,-0.002448,-0.027895,-0.10447,-0.12999,0.30356,-0.10453,0.022986,0.2271,0.12505,-0.10447,0.023065,-0.002412,-0.181,-0.20651,0.074008,-0.079021,-0.15554,0.023023,-0.25754,0.86483,0.023108,-0.2065,-0.078977,-0.13004,-0.25759,-0.002503,0.12506,0.17608,-0.10444,-0.30854,-0.23202,0.40565,-0.2065,0.40567,-0.0535,-0.3086,0.15058,0.074013,0.20159,-0.10449,-0.12995,-0.053464
