-0.20652,-0.15549,-0.053476,-0.18098,-0.002443,0.023029,0.17607,0.20156,0.048561,0.074051,-0.07899,-0.25751,-0.053495,-0.12996,-0.027974,-0.002461,0.20156,0.023035,0.12508,0.023047,-0.181,-0.07899,-0.13,-0.10447,-0.10449,0.099564,0.09954,0.15057,0.048543,0.074057,-0.078977,-0.15551,-0.12998,-0.23201,-0.002454,0.023041,0.25257,0.048561,0.15056,0.074051,-0.027969,-0.18103,-0.20649,-0.078977,-0.18099,0.12507,0.25257,0.074051,0.20156,0.023035,-0.078972,-0.23203,-0.12997,-0.027974,-0.078966,0.15056,0.09954,0.15057,0.15056,0.048567,-0.18101,-0.25752,-0.10449,-0.053464,-0.078972,0.048536,0.17607,0.099546,0.17608,0.074057,-0.078984,-0.053476,-0.13,-0.15548,-0.027962,0.048536,0.15057,0.099534,0.17607,0.048549,-0.18101,-0.232,-0.078977,-0.18098,-0.002448,-0.002479,0.15056,0.17606,0.15057,0.048549,-0.07899,-0.2065,-0.15551,-0.15548,0.023041,0.023035,0.20158,0.22707,0.15057,0.12507,-0.13001,-0.078953,-0.1555,-0.181,-0.10448,0.048543,0.27808,0.099546,0.15059,0.099564,-0.12998,-0.078984,-0.078984,-0.20649,-0.002454,-0.002472,0.12506,0.20156,0.12507,-0.002461,-0.053482,-0.25753,-0.1555,-0.053464,-0.10449,0.15057,0.099564,0.15056,0.12509,0.099546,-0.002461,-0.1555,-0.078977,-0.15548,-0.053482,0.15057,0.17606,0.048543,0.074062,0.048536,-0.078972,-0.18101,-0.20649,-0.10447,-0.10449,-0.002461,0.20156,-0.027969,0.099559,-0.002467,-0.05347,-0.15552,-0.078977,-0.12997,-0.12999,0.17607,0.099534,0.12506,0.12506,0.074057,-0.027969,-0.33404,-0.027962,-0.05347,-0.15548,0.20158,0.12505,0.074062,0.09954,0.023054,-0.053482,-0.18101,-0.078972,-0.078984,-0.20649,0.15055,0.20156,0.20157,-0.027969,-0.053464,0.048531,-0.30854,-0.078972,-0.10448,-0.10447,0.074044,0.22707,0.12506,0.15056,0.048567,-0.078996,-0.053476,-0.10448,-0.12998,-0.18098,0.074033,0.27809,0.048536,0.17608,0.023029,-0.027969,-0.28304,-0.05347,-0.2575,-0.027974,0.023047,0.27807,0.099552,0.023041,0.12508,-0.18101,-0.12999,-0.12998,-0.12998,-0.078977,0.048531,0.15057,0.12505,0.023059,0.048549,-0.13,-0.13,-0.053482,-0.232,-0.002448,0.023023,0.15058,0.15056,0.074062,0.17608,-0.10449,-0.28302,-0.053482,-0.15546,-0.027962,0.074057,0.12507,0.12504,0.15057,0.099564,-0.002479,-0.30853,-0.078984,-0.12999,-0.078953,0.074033,0.17607,0.17606,0.099559,0.074051,-0.18101,-0.078977,-0.1045,-0.18097,-0.078972,0.074044,0.20156,0.099552,0.074057,0.12505,-0.078966,-0.18101,-0.12999,-0.12998,-0.20649,-0.027962,0.22706,0.12505,0.12507,0.023035,-0.10447,-0.18101,-0.10447,-0.078972,-0.078972,0.048555,0.22705,0.17607,0.15057,0.099559,-0.002454,-0.28303,-0.12999,-0.002461,-0.30851,0.074051,0.27808,-0.027969,0.15057,0.20157,-0.23201,-0.12999,-0.10449,-0.2575,-0.002461,-0.002485,0.074038,0.20156,0.15057,0.074057,-0.13001,-0.10449,-0.1045,-0.10447,-0.18099,0.074038,0.15057,0.20157,0.074062,-0.002467,-0.002461,-0.1555,-0.078977,-0.10447,-0.027974,-0.027969,0.22706,0.023047,0.099552,-0.027956,-0.002472,-0.18101,-0.13,-0.10447,-0.053464,0.048543,0.099552,0.048536,0.15058,0.12505,-0.002461,-0.23202,-0.12999,-0.078972,-0.181,-0.05347,0.20157,0.099552,0.048561,0.17607,-0.027969,-0.25753,-0.078966,-0.12998,0.048543,-0.027962,0.20156,0.048555,0.12507,0.15058,-0.12999,-0.18101,-0.078984,-0.13,-0.12997,0.09954,0.048536,0.25258,0.12507,0.12507,0.074044,-0.33404,-0.23201,-0.002454,-0.20649,0.074044,0.27808,-0.02798,0.12507,0.25259,-0.181,-0.15549,-0.027969,-0.2065,-0.2065,0.15054,0.27808,0.22708,0.09957,-0.002467,-0.053476,-0.33401,-0.2065,-0.10448,-0.002454,0.15056,0.12506,0.15055,0.17606,0.17609,-0.15549,-0.33403,-0.05347,-0.12997,-0.18098,-0.002479,0.32907,0.048536,0.12507,0.074057,0.023023,-0.25753,-0.18099,-0.002461,0.074075,-0.027962,0.12505,0.15056,-0.053488,0.048561,0.2271,-0.079002,-0.25752,-0.181,-0.078977,-0.027969,0.20157,0.20158,0.15057,0.048561,-0.002467,-0.30854,-0.15548,-0.181,-0.2065,0.023041,0.45661,0.12507,0.15057,0.20159,-0.1555,-0.15549,-0.1045,-0.10447,-0.12999,-0.053495,0.27808,0.15056,0.074057,0.12505,-0.053482,-0.15549,-0.053482,-0.027969,-0.2065,-0.053476,0.15057,0.20155,0.27812,0.35463,-0.25754,-0.64015,0.12509,0.048598,-0.35956,-0.078972,0.074013,-0.053495,0.12504,0.55868,-0.027962,-0.18103,-0.28299,-0.232,-0.078959,0.048536,0.099528,0.20158,0.40564,-0.053458,-0.18101,-0.28305,-0.18101,-0.23201,-0.12996,-0.002491,0.38011,0.30363,0.40563,-0.20653,0.07402,-0.002436,-0.38504,-0.28304,-0.18099,0.023029,-0.027993,0.12504,0.91579,-1.3544,0.45671,1.8341,-0.64017,-0.71662,-0.51262,0.0977,0.32721,0.25071,0.32721,0.25071,-0.33406,0.15059,-0.23197,-0.053458,-0.35956,-0.002454,0.3036,0.20159,0.048536,-0.35956,0.32913,0.12509,-0.2065,-0.23201,0.30364,0.2271,-0.4106,0.38012,-0.33408,-0.002491,-0.05347,-0.232,0.15058,0.12513,-0.33403,0.15059,0.20156,-0.38508,0.15055,0.15056,0.048561,-0.4871,0.50769,0.71181,-0.56359,-0.30858,-0.38513,0.68619,0.12507,-0.53815,-0.2065,0.17612,0.15057,0.074087,-0.23203,-0.027944,0.50766,-0.20655,0.048543,-0.25757,-0.002448,0.35465,-0.46159,0.023078,0.25262,0.50769,-0.48711,-0.38511,0.35463,0.3801,-0.33407,-0.23201,-0.15549,0.50771,0.71175,-0.35957,-0.28308,-0.51263,-0.46159,1.1199,0.048531,-0.10446,-0.027938,-0.10447,-0.28302,-0.028011,0.43115,-0.2065,-0.002461,-0.053519,-0.12999,-0.30855,0.074044,-0.002443,0.35468,-0.053488,0.048506,-0.002472,-0.078972,0.09954,-0.25754,0.2526,0.76278,-0.33405,-0.28301,0.074069,-0.3341,-0.38508,0.15059,-0.10448,0.099552,0.17607,-0.002461,0.099595,-0.18101,-0.15549,0.25258,0.22707,-0.74221,0.074062,0.60977,-0.027969,0.15056,-0.15552,-0.053446,-0.079008,-0.20657,-0.053451,0.074038,0.12507,0.68627,0.048561,-0.25753,-0.15551,0.58424,-0.46161,-0.053531,-0.002454,-0.56366,0.074075,0.38013,-0.10447,-0.078977,0.023059,-0.078959,-0.28306,-0.69122,1.528,0.6862,-0.43612,-0.61463,-0.30849,0.20163,-0.002485,0.023054,0.048512,-0.028036,0.023023,-0.053458,-0.23203,-0.053464,0.12513,-0.25752,0.76276,0.48219,-0.51264,0.38011,-0.38509,-0.20653,-0.20655,-0.35957,-0.25751,0.40566,0.22712,0.074087,0.074044,-0.079051,-0.10452,-0.25756,0.023047,0.58425,0.30361,0.048567,-1.4054,0.40568,0.60969,-0.92075,0.22707,-0.13001,-0.20653,-0.078966,0.023047,-0.15548,-0.053458,0.38013,0.76275,-0.33405,-0.20652,-0.02798,-0.002503,0.023023,0.023065,0.20161,-0.3085,-0.053464,-0.079021,0.022974,0.2271,-0.027987,-0.18101,-0.38503,-0.15553,0.73725,0.78832,0.12512,-0.66568,-0.74222,-0.51265,0.15055,0.43117,-0.43606,0.12507,0.50768,0.38017,0.22713,-0.35957,-0.35959,0.023017,0.12505,-0.027987,-0.10449,0.22718,0.099577,0.27813,-0.30854,-0.33409,-0.18103,-0.15551,0.099534,-0.05347,-0.027962,0.48218,0.15057,-0.078947,0.48222,-0.33409,-0.3341,0.32912,0.099546,-0.30851,-0.25753,0.15058,0.15057,0.023017,-0.18101,0.15057,0.32908,-0.89523,0.17611,0.86482,-0.66565,0.63522,0.66072,-0.5381,-0.28307,-0.053464,-0.25755,-0.28307,-0.15549,0.17606,0.38014,0.2271,-0.3851,0.76278,0.32917,-0.30855,-0.23204,-0.33408,-0.002479,0.099577,0.048531,0.55873,-0.71666,-0.20652,-0.053439,-0.002491,0.023005,-0.028011,0.22711,0.43118,-0.4871,0.35465,-0.23204,-0.5636,-0.053482,0.074026,0.02301,-0.25754,-0.002472,0.45672,0.048573,-0.027956,0.048567,0.023054,-0.027987,-0.48713,0.43115,0.32909,-0.053525,0.25262,-0.66563,0.12509,-0.12998,-0.027962,0.86485,-0.25753,-0.46164,-0.28308,-0.84424,0.48216,0.55871,0.12509,-0.10447,-0.027962,-0.28302,-0.12997,-0.15557,0.40563,-0.027993,0.048525,0.35462,-0.053433,-0.078972,0.048592,-0.002454,-0.71666,0.22707,0.22707,-0.41062,0.27811,-0.002448,-0.5381,0.17609,0.50773,0.45669,-0.053506,-0.46164,-0.20651,0.09957,0.099552,-0.027974,-0.25752,0.2526,0.1506,-0.002454,-0.078984,-0.48713,-0.079008,1.2984,-0.07899,-0.38509,-0.5126,-0.25751,-0.46159,0.86479,0.99234,-0.3596,-0.41058,-0.35958,0.17607,-0.1045,-0.41054,0.1506,0.43117,0.17609,0.20159,0.12501,-0.71671,0.48216,0.76281,-0.41059,-0.30854,-0.28302,0.074075,-0.002448,-0.15555,-0.18108,-0.13001,-0.10448,0.15057,-0.38506,0.53321,0.53321,-0.25756,-0.18099,-0.18102,-0.053519,0.22708,-0.51262,0.17607,0.58421,0.099601,-0.18098,-0.38508,-0.33409,0.40565,0.60969,-0.25756,-0.15552,-0.20653,-0.053488,-0.07899,-0.20647,-0.43604,0.40567,0.76275,0.02301,-0.028005,0.63524,-0.79322,-0.3596,-0.18098,-0.2065,0.32913,0.4822,-0.027993,-0.33413,0.43114,0.12504,0.2781,-0.10447,0.048573,0.22713,-0.38503,-0.43604,-0.41061,0.15053,0.22708,-0.43614,0.53319,0.8393,-0.38503,-0.053451,-0.23201,-0.15547,-0.0535,0.12505,-0.079014,0.22709,0.023023,-0.13001,-0.002443,-0.078972,-0.053439,-0.4616,0.91583,0.83926,-0.79319,-0.20653,0.48211,-0.28305,-0.20653,-0.078947,-0.10447,-0.05347,0.15057,0.15054,0.20159,0.023072,-0.1555,-0.002472,0.099552,-0.23205,-0.078935,0.099588,-0.079002,0.20157,0.3036,0.023005,-0.23203,-0.30853,0.074087,0.09957,0.1506,-0.10449,-0.64014,0.5587,0.40566,-0.25757,0.3546,-0.35957,-0.58913,0.32916,0.099588,-0.027931,-0.20652,0.023017,-0.002491,-0.56362,0.074044,0.55872,-0.35955,-0.05347,0.48221,0.63524,-0.23204,-0.15557,0.099564,-0.18101,-0.20655,-0.027974,0.023047,0.023078,-0.28297,-0.25753,0.66074,-0.079014,-0.3086,0.68621,-0.002497,-0.18103,-0.38503,-0.053446,0.023041,-0.1045,0.17607,-0.28311,0.15059,0.27812,-0.35956,0.17611,-0.18098,-0.12997,-0.12995,0.048555,0.30361,-0.1045,-0.10452,-0.027987,0.32909,0.048536,-0.18099,-0.53814,-0.053458,0.76278,-0.28306,0.40565,0.38015,-0.4106,-0.3341,0.023047,-0.38506,0.25261,0.20166,-0.053433,-0.15554,0.12501,-0.15553,0.20163,-0.002479,-0.078947,0.074038,-0.15551,-0.02795,-0.20651,0.25264,0.4311,0.048525,0.48216,-0.027993,-0.30855,-0.053451,-0.79317,-0.053458,0.32916,0.048536,-0.66573,0.32911,0.94133,0.2526,-0.51262,-0.027974,-0.079002,-0.027956,-0.12994,-0.20653,0.35462,0.35465,-0.35961,0.023041,0.12509,-0.053488,-0.079002,-0.002448,-0.053476,0.20159,-0.002497,-0.10454,-0.027944,-0.181,0.27812,0.1506,0.17608,-0.05347,0.074081,-0.13,-0.53816,0.50769,0.023047,-0.33407,-0.078972,0.023023,-0.15552,0.023108,-0.002461,0.25259,0.55866,-0.38509,-0.25749,-0.58914,0.43111,0.53321,-0.027969,-0.25751,-0.28303,-0.74221,1.4769,0.09954,-0.15554,-0.33409,-0.28305,0.45671,0.30366,-0.23202,-0.12995,-0.15552,-0.028011,-0.079014,-0.027987,0.023059,0.20161,-0.027944,0.074038,0.09957,-0.053458,0.048506,0.023017,-0.18104,0.17612,0.074075,-0.18105,-0.23199,-0.12999,0.60973,0.17609,-0.20655,-0.002497,0.099515,0.023029,0.20161,-0.33404,-0.20647,-0.002443,0.43118,-0.18098,-0.053506,-0.25756,-0.13002,0.5587,0.48214,-0.079008,-0.28303,-0.002443,-0.2065,-0.4871,0.15056,-0.15551,0.099577,0.35463,-0.20652,0.09957,-0.23201,-0.41055,0.71179,0.22711,-0.0535,-0.13007,-0.15556,-0.23204,-0.027969,0.40566,-0.2575,-0.10448,0.023072,-0.078959,0.099546,0.022986,0.60973,-0.002461,-0.46163,-0.1045,0.63523,-0.15552,-0.28303,-0.002436,-0.05347,-0.18103,-0.079008,0.048487,-0.10449,0.20163,-0.027938,-0.053458,-0.002448,0.048567,0.023047,0.099491,-0.1555,-0.3341,0.3036,-0.078972,0.38018,0.32917,-0.33405,0.099564,-0.002503,-0.18105,-0.10449,-0.07899,-0.078996,-0.56363,0.66074,0.45669,-0.38504,0.17609,-0.20653,-0.13002,-0.35958,0.40566,0.12509,-0.027974,-0.20649,-0.15549,0.15058,-0.56359,0.71173,0.50766,-0.35959,-0.15554,-0.18101,-0.1555,-0.15547,0.023059,0.38015,-0.25751,0.17609,0.20158,-0.18101,-0.13004,-0.13003,0.1251,-0.18101,0.023041,0.32917,0.22712,-0.38511,-0.33409,0.73721,-0.23202,-0.18101,-0.15553,-0.23202,-0.18097,-0.2065,0.25262,0.074044,0.35461,-0.18105,-0.3341,0.38012,0.53318,-0.2065,-0.20648,-0.12997,-0.25753,-0.33409,0.30358,0.58418,-0.33409,-0.10445,-0.027944,0.30362,-0.13001,-0.18099,-0.053458,-0.027944,-0.027998,-0.027998,0.25256,0.15057,-0.15554,-0.002485,0.53321,0.074118,-0.20647,0.2526,0.074026,-0.30858,-0.33408,-0.13001,-0.053482,-0.053433,0.38016,0.30366,-0.30851,-0.078984,0.15048,-0.027998,-0.053519,0.25258,-0.02795,-0.078935,0.048555,0.074051,-0.053427,0.099552,0.022986,-0.002485,-0.002472,-0.13,0.04858,0.023054,-0.078984,-0.053421,-0.053464,-0.25754,0.12501,-0.25759,0.30364,0.45668,0.20158,-0.053458,-0.25756,-0.15548,-0.18098,0.074062,-0.13005,-0.51264,0.38011,0.4567,-0.20653,-0.027956,-0.002461,-0.002448,-0.053433,-0.027987,0.20154,0.048561,0.074013,-0.02798,-0.10449,-0.12999,-0.10448,0.20161,-0.053446,0.048549,0.25259,-0.027993,-0.13004,-0.15552,-0.20653,0.17612,0.023035,-0.10449,0.60973,0.023023,0.074002,-0.18103,-0.33407,-0.28303,0.35464,-0.053464,0.17611,0.048555,0.099583,0.048536,-0.3596,-0.38508,1.0943,0.76275,-0.48712,-0.35955,-0.15553,-0.18099,-0.02795,-0.079002,0.12504,-0.002491,-0.079014,0.30362,0.32913,-0.23199,-0.002423,0.048543,-0.15548,-0.28303,0.099534,0.17604,-0.002461,-0.053482,-0.33404,-0.2065,0.023047,0.27814,-0.053433,0.12504,0.099528,-0.053495,0.048512,-0.079021,0.25263,0.099595,-0.053476,-0.078941,-0.35956,-0.1045,0.40562,-0.13002,0.20158,0.023047,-0.078972,-0.2065,-0.12999,0.12508,-0.002467,-0.078977,0.15054,0.30358,-0.053476,-0.23201,0.12508,0.2016,-0.20653,0.099613,0.20163,-0.13004,-0.079045,-0.15554,0.17609,-0.053519,-0.15551,0.32917,-0.25748,0.12509,0.2016,-0.41058,0.12504,0.099534,0.12504,0.023029,0.30361,0.074062,-0.181,0.20159,-0.10448,-0.15549,-0.20655,-0.002472,-0.10449,0.074062,0.099601,-0.002436,0.048531,-0.181,0.048561,0.074044,0.0485,-0.18105,0.09954,-0.002405,-0.10447,-0.078984,-0.027974,0.12507,0.17607,0.17609,-0.13003,0.3036,-0.41059,0.074069,0.35464,-0.18099,0.048536,-0.10449,-0.25748,-0.15551,0.20155,0.15057,-0.002467,-0.02798,-0.23202,-0.078966,0.71171,0.023047,-0.12998,-0.002491,-0.079014,-0.12999,-0.15551,-0.38508,0.40566,0.40569,-0.23202,-0.23201,-0.078953,0.074044,0.20155,-0.51265,0.048512,0.48218,-0.28303,-0.027931,0.048555,0.048536,0.15064,-0.078984,-0.10454,0.074026,0.048525,0.17605,0.22713,-0.10448,-0.027956,-0.23201,-0.23198,-0.07899,0.35459,-0.02798,-0.002479,-0.053482,-0.053446,-0.078984,0.17609,0.27814,-0.181,-0.18101,0.30363,-0.13001,0.023017,-0.053495,-0.027969,0.023054,0.074093,-0.078953,0.27814,-0.15551,-0.028029,-0.078972,-0.053495,0.15056,-0.25754,0.22709,0.1506,-0.053439,0.099588,-0.12998,0.12502,-0.028005,-0.13001,-0.0535,-0.15548,-0.027938,0.023065,-0.10445,0.099564,0.099552,0.17605,-0.13005,0.12507,0.30363,-0.15549,-0.181,0.074038,-0.10445,0.074069,-0.30855,-0.027974,0.73723,-0.18103,-0.20654,-0.10452,-0.053464,-0.027931,-0.30855,0.35465,0.45668,-0.13005,-0.53811,-0.078984,0.099559,-0.1045,0.15056,0.2016,0.17607,-0.15548,0.1761,-0.13002,0.099564,-0.079039,-0.28303,-0.10447,0.023035,0.099583,-0.12998,-0.078972,-0.12999,0.20154,0.30361,-0.027956,-0.10451,-0.10449,0.099546,-0.1045,0.074062,0.023041,0.22712,-0.0535,-0.053488,-0.38508,0.25259,0.04858,0.048555,-0.10448,-0.053451,-0.002454,-0.15551,0.25257,0.074026,-0.027956,0.023023,-0.13,0.30364,0.099546,0.023059,0.023072,-0.1045,-0.10449,-0.002497,0.22707,-0.1045,-0.10449,-0.2575,-0.053488,0.074062,0.15059,0.023029,0.15055,0.22706,-0.25753,0.09954,-0.18099,0.099588,0.25262,0.023072,-0.10447,-0.053488,-0.18108,-0.30856,0.023035,0.60973,-0.002479,-0.15549,-0.053506,-0.2575,0.15059,0.023059,-0.10455,-0.12999,0.32913,-0.079014,0.35465,-0.12999,0.023035,0.074087,0.023059,0.099546,-0.002485,-0.15554,-0.05347,0.15059,-0.13,0.12509,-0.002467,-0.053464,0.35466,-0.18103,-0.002521,-0.13001,-0.002485,0.023023,-0.20655,0.43118,0.66077,-0.2065,-0.25753,-0.41058,0.12504,-0.078996,0.074075,-0.10452,-0.053476,0.15059,0.074051,-0.027969,-0.10446,-0.027962,0.30357,-0.15551,-0.18102,0.12508,0.099595,-0.053451,0.048555,0.048536,-0.027969,-0.20651,0.022998,0.17606,-0.15551,-0.15549,0.1251,-0.027974,0.048561,-0.28303,0.048561,0.50768,0.6352,-0.30856,-0.25758,-0.027993,-0.078977,-0.027956,-0.053464,-0.12998,0.17608,-0.027974,-0.10452,0.12507,-0.002479,0.38013,0.023065,-0.002467,-0.13,-0.027956,0.12507,-0.12999,-0.002497,-0.18104,0.15055,0.30362,0.048536,0.023029,-0.10449,-0.28301,0.1251,0.2526,-0.053519,-0.15551,0.074051,0.48217,-0.07899,0.048536,-0.10452,-0.2065,0.22715,0.22708,-0.053495,-0.078984,-0.18102,-0.23203,0.17609,0.099583,0.023054,-0.002454,-0.078947,-0.002461,-0.053525,0.023047,0.12505,0.048531,-0.002467,-0.15551,0.048592,0.38018,-0.23201,-0.18101,-0.053506,0.12504,0.3036,-0.07899,-0.10451,-0.10447,-0.027956,0.048561,-0.027944,0.12507,-0.079021,-0.15551,0.048536,0.15058,-0.23204,0.35464,0.38019,-0.181,-0.30852,-0.12998,-0.13009,-0.079008,0.38014,0.023035,-0.28302,-0.053482,-0.12998,0.023059,0.15059,0.048549,-0.002491,-0.13004,0.17609,0.15056,-0.053476,-0.12998,-0.181,-0.38506,0.5332,0.35465,-0.028036,-0.18105,-0.15551,-0.079021,-0.20652,0.27812,0.17609,-0.15546,-0.078953,-0.002479,0.20154,-0.10452,-0.027993,-0.23202,0.22711,0.22715,-0.12999,0.15059,-0.002412,-0.15551,0.176,-0.15552,-0.028011,-0.13002,0.15059,0.074081,-0.13,0.074075,0.023065,0.15057,-0.002503,-0.078996,-0.25757,-0.053488,-0.10449,0.1761,0.048592,-0.078972,-0.18099,-0.15551,0.63515,-0.13,-0.13001,-0.25756,-0.15549,0.048549,0.074075,0.048592,0.12508,-0.02798,0.074008,-0.18103,-0.053464,0.023054,0.023047,-0.20653,0.20161,0.43117,0.12509,0.2271,-0.3341,-0.1045,-0.23206,-0.053525,-0.15547,-0.078959,-0.078953,-0.053458,0.17611,0.27813,0.099491,-0.053476,-0.10451,-0.027974,0.15057,-0.13,-0.10445,-0.15548,-0.20649,-0.002479,0.58414,0.17607,-0.053525,-0.181,0.2271,-0.002454,-0.232,-0.078972,-0.10447,-0.181,0.048494,-0.30858,0.30365,0.32913,-0.35956,-0.10446,0.023065,0.074069,-0.33404,0.35463,0.73718,-0.23205,-0.078984,0.048543,-0.232,0.099564,0.048549,-0.078959,-0.10447,0.074038,0.048525,-0.23202,0.30363,-0.10451,-0.027969,-0.02795,-0.002454,-0.18099,0.099552,0.048543,0.25257,-0.002485,-0.1045,-0.10449,0.074044,-0.02795,-0.078947,-0.15549,0.023072,0.38016,-0.13006,-0.079021,-0.002467,-0.20655,0.074081,0.074087,-0.23202,0.38017,-0.078972,-0.002479,0.38011,-0.027998,-0.20654,0.17609,-0.05347,-0.12997,-0.18099,-0.334,-0.002418,0.023017,-0.079021,0.09951,0.048525,-0.15552,-0.027969,0.58424,0.40566,-0.0535,-0.38503,-0.15552,0.12502,0.17606,-0.053513,-0.12998,-0.20653,0.15062,-0.10445,0.27812,0.074081,-0.002503,0.048512,-0.079014,-0.002485,0.2526,-0.35956,0.20164,0.17609,-0.23202,-0.027944,-0.027962,0.074002,-0.053513,-0.002454,0.099546,-0.12996,-0.078977,0.35465,-0.078984,-0.15546,0.048536,0.023005,-0.18105,0.17609,0.35461,-0.053476,-0.23203,-0.078947,0.023059,0.048592,-0.13001,-0.053519,0.099528,0.25257,-0.053495,-0.078941,0.048549,0.074069,0.099583,-0.027956,0.12508,-0.15556,-0.1045,0.12505,0.023047,-0.23202,-0.078972,0.43118,-0.10449,0.1506,-0.05347,-0.053531,-0.18104,0.2526,-0.23205,-0.002472,-0.10447,0.15062,0.099583,-0.078959,0.12506,0.02301,0.022992,-0.1045,0.27809,-0.15548,0.099583,-0.002448,0.12508,-0.23202,-0.079014,0.48212,-0.12998,-0.078996,-0.002472,-0.15551,-0.053482,-0.027938,0.50769,0.22712,-0.15553,-0.079033,-0.10451,-0.10449,-0.15551,0.17607,0.099613,0.048549,0.1251,-0.02795,0.074062,0.073971,-0.10453,0.35462,-0.20652,-0.12996,-0.25754,0.40569,0.048567,-0.2065,0.023047,-0.028018,0.023005,-0.028011,-0.027956,0.023054,-0.053458,0.074118,0.09957,-0.078966,-0.23203,0.12501,-0.23204,0.38012,0.5332,-0.20652,-0.23202,-0.38504,-0.002436,0.048567,0.023035,0.02298,-0.053488,0.099528,0.17607,0.17609,-0.027944,0.074069,0.023072,-0.283,0.17611,0.20153,-0.079014,-0.079026,-0.15549,0.20158,-0.10449,0.15056,-0.002436,-0.12998,-0.078972,0.12503,-0.20654,0.15053,0.48217,-0.053464,-0.30854,0.099608,-0.15549,-0.027956,0.12507,-0.002497,-0.18105,0.32915,-0.028005,-0.12999,0.2016,0.38018,-0.18102,-0.12996,-0.15553,0.022986,-0.053519,-0.027962,0.074044,-0.10447,0.17609,-0.12996,0.12508,-0.053451,0.048543,0.2781,-0.18105,-0.10449,-0.002479,-0.053482,0.048561,0.048567,-0.15547,-0.002461,0.074051,0.32907,-0.002472,-0.18103,-0.027962,0.048536,0.20158,-0.10447,0.023065,0.0741,-0.20653,0.30361,-0.079021,-0.15551,0.048536,-0.1045,0.074062,0.048549,0.023059,-0.027969,-0.002448,0.023005,-0.053495,-0.053488,0.099564,-0.002461,0.023059,0.43115,0.12509,-0.41055,-0.078996,-0.18102,-0.18101,0.074026,0.15054,0.12505,0.15057,-0.078959,-0.15546,0.023059,-0.078972,-0.053513,0.023005,-0.13,0.22708,0.20157,-0.07899,-0.027962,-0.053427,-0.15547,-0.12999,0.02301,-0.002497,-0.13002,0.35461,0.074051,-0.00243,-0.1555,-0.078959,0.35469,-0.15553,-0.23208,0.2526,-0.053488,-0.053495,-0.20652,-0.078941,-0.10447,0.099559,0.074087,0.023059,0.125,-0.13002,0.023029,0.048536,0.099564,0.048567,-0.078953,0.099588,0.074062,-0.12999,-0.15554,-0.002516,0.074033,0.22708,0.023023,-0.53811,0.1506,0.66079,-0.38502,-0.027993,0.022992,-0.28308,-0.18103,-0.18101,0.048531,0.0741,0.099564,-0.053458,0.60971,-0.12996,-0.002516,-0.027998,0.022998,-0.002472,0.15058,-0.35954,0.099608,0.20161,-0.23202,-0.053488,0.27805,-0.20652,-0.002485,0.023054,-0.15551,-0.053451,-0.002448,0.2271,-0.12996,0.2271,-0.10451,-0.002479,-0.053488,-0.18104,-0.053476,-0.053464,-0.02795,-0.002436,-0.027969,0.048573,0.27805,-0.002472,-0.25754,-0.002472,0.50769,-0.02798,-0.28302,-0.078972,0.32917,-0.23203,-0.079039,-0.07899,0.12504,-0.027962,-0.002454,-0.078966,-0.002448,0.048561,0.023065,-0.002479,0.048518,-0.027993,0.023029,0.048536,-0.053482,-0.00243,-0.002443,0.023084,-0.18099,0.023023,0.50766,-0.053519,-0.10453,-0.1045,-0.28307,-0.053439,0.40571,-0.28301,0.023078,0.048531,0.099521,-0.028005,-0.25754,0.023017,0.074062,0.1251,0.2016,-0.078959,-0.12995,-0.079008,-0.10454,-0.10452,0.50765,0.68624,-0.28304,-0.18101,-0.23201,-0.15548,0.12509,0.074033,-0.002497,-0.18103,0.17608,0.074038,0.074062,-0.002461,0.074062,-0.12997,-0.053433,-0.002454,0.022986,-0.0535,-0.002467,0.15056,-0.10449,-0.053458,-0.078941,-0.053476,-0.027925,-0.028011,0.12504,-0.078996,0.15058,-0.079008,0.02301,0.023084,-0.12998,-0.12999,0.023078,0.048549,0.074033,-0.002467,-0.0535,-0.078977,0.048567,-0.053451,-0.12998,-0.02798,0.12512,0.2781,-0.002497,-0.13002,-0.13001,-0.002461,0.023023,-0.078966,0.048555,-0.05347,-0.10445,-0.12999,0.048536,0.023005,0.17608,0.048518,-0.20652,0.074075,-0.05347,-0.20648,0.099564,0.20159,0.3036,-0.15555,-0.18104,-0.23204,0.45666,0.20163,-0.30855,-0.12998,-0.027944,-0.027962,-0.028018,0.023017,0.12508,0.048531,0.074057,0.023072,0.048567,-0.027956,-0.2575,0.32915,-0.002528,-0.25757,0.074026,0.12504,-0.12999,0.074087,0.15059,-0.15548,0.099632,-0.002467,-0.002521,-0.079008,0.048518,-0.002491,-0.12998,0.22715,-0.10448,0.12506,-0.181,0.17609,0.074013,-0.18105,-0.28305,0.048549,0.48217,0.25261,-0.15548,-0.10447,-0.23202,-0.078984,-0.079008,0.048512,0.17607,0.023035,0.15057,-0.053458,0.04858,-0.027962,-0.2065,0.15059,-0.002503,-0.15555,-0.1045,-0.181,0.074051,-0.027962,0.048567,0.25262,-0.053458,-0.078977,-0.13003,-0.079021,-0.002461,-0.078996,0.2271,-0.002472,-0.10447,-0.10445,-0.078959,-0.13001,0.074038,0.023023,0.17604,-0.10452,0.099595,-0.078959,-0.20649,-0.002436,-0.002436,-0.079002,0.048525,-0.053495,0.12505,-0.079026,-0.002472,0.074075,0.32915,-0.05347,-0.053446,-0.25751,-0.002497,-0.053495,0.32909,-0.10449,-0.12999,0.09957,0.099564,-0.027944,-0.15546,-0.002472,0.20156,-0.13002,0.048536,-0.12999,-0.10449,0.20158,-0.10449,-0.002436,0.023084,0.074033,0.20153,0.022998,0.099534,-0.1045,-0.23202,0.58422,-0.23201,-0.30851,-0.12998,-0.10449,-0.053506,0.074026,0.074033,-0.20652,0.27813,-0.053476,-0.078972,0.099588,0.27811,-0.18103,0.12504,-0.053495,-0.1045,-0.12999,0.099552,0.023059,0.12509,-0.027969,-0.10446,-0.002467,-0.079021,-0.18101,0.12504,-0.002485,0.048561,0.023041,-0.027969,0.25265,-0.15551,-0.078972,0.099528,-0.13002,0.048561,-0.002467,-0.13001,0.2271,0.12511,-0.28305,-0.18095,0.17609,0.12501,-0.10453,-0.078984,-0.079014,-0.078977,-0.027956,0.22712,-0.027962,-0.10448,-0.25752,0.4311,0.3036,-0.18103,-0.23201,-0.13,-0.12999,0.22715,0.023041,-0.10447,0.02301,0.074013,0.27809,-0.053482,-0.002461,-0.20652,-0.002443,0.09957,-0.12998,0.12508,-0.13,-0.053506,-0.0535,-0.027956,0.17606,-0.10448,0.12507,-0.078953,-0.181,0.074062,0.1506,-0.027998,-0.15554,-0.027987,0.40563,-0.027956,-0.053482,-0.078984,-0.15548,0.048549,-0.002461,0.17606,-0.10452,-0.078984,0.048531,0.048543,0.023054,-0.027938,0.023054,0.20161,-0.2065,0.15054,-0.00251,0.048555,-0.002467,-0.2065,-0.002436,-0.002479,0.074044,-0.002436,-0.053476,0.074033,-0.13001,-0.002491,-0.053476,0.15058,-0.002454,-0.027938,0.20159,-0.10447,-0.078996,0.17604,0.074044,0.048549,-0.18103,-0.05347,-0.002472,-0.078966,-0.027938,0.1506,-0.12997,0.099521,-0.028005,0.023017,0.074044,0.023047,0.099588,-0.02798,-0.002436,-0.10445,0.15056,0.048518,-0.0535,-0.0535,-0.13,-0.078959,-0.13,0.023054,-0.00243,0.023059,0.32913,0.048518,-0.053495,-0.10451,-0.002485,-0.10447,0.099577,-0.002467,-0.10449,0.023072,0.048555,0.20155,-0.10452,-0.027962,-0.053495,-0.15551,0.023041,0.2526,0.099583,0.12509,-0.053476,-0.13004,-0.23204,-0.053513,-0.053464,0.15057,-0.053476,0.12508,0.099577,-0.053433,0.099564,-0.053537,0.12505,-0.0535,0.074026,-0.10448,-0.053433,0.048567,-0.23201,-0.078959,0.2781,0.20153,-0.15553,-0.12999,-0.18103,-0.053488,0.22713,0.048549,-0.027925,-0.078966,0.099577,-0.053519,0.048482,0.3036,-0.07899,-0.053482,-0.053464,-0.10445,-0.002454,-0.078947,-0.002448,0.20153,-0.07899,0.048525,-0.13002,-0.2065,0.023059,0.32915,-0.078959,-0.053464,-0.05347,0.048555,-0.13005,0.074044,-0.079008,-0.002485,-0.002443,0.30363,0.048567,-0.027931,0.023065,-0.053519,-0.10451,-0.053513,-0.18102,-0.053476,-0.02798,0.099588,0.099595,0.023065,0.048585,0.17603,-0.28306,0.25259,-0.15551,-0.1045,0.074062,0.048585,-0.15549,-0.10446,-0.027969,0.09951,-0.10452,0.22705,0.20159,0.074044,-0.078972,-0.10445,-0.12998,-0.053433,0.15058,0.07402,-0.027993,-0.053513,-0.12998,-0.002479,0.20161,0.15058,-0.053464,0.023072,-0.25753,0.15055,-0.18104,-0.053476,0.17608,0.074062,-0.002467,-0.053451,0.023059,-0.053458,0.023029,0.023005,-0.053506,-0.13,-0.053464,0.074038,-0.15549,0.074093,0.20159,-0.18098,0.048549,0.12504,-0.25756,-0.027974,-0.002485,0.15059,-0.18099,-0.078953,-0.053482,0.15062,0.048536,-0.10451,-0.028018,0.023029,0.048506,0.023065,-0.053482,0.074093,0.15059,-0.002399,-0.23202,-0.10452,0.17604,-0.10452,0.048536,0.09957,-0.078972,0.023059,-0.002418,-0.02798,-0.027962,-0.10453,0.048525,-0.027987,-0.0535,-0.027969,0.2016,0.20162,-0.20649,-0.078984,-0.12996,0.022998,-0.10451,0.074026,-0.10449,0.15059,0.023041,0.099577,-0.053446,0.074069,0.02301,-0.002503,0.074033,-0.13001,-0.10446,-0.002467,0.1251,0.25262,-0.13,-0.12997,-0.079014,-0.00251,0.048531,0.22708,-0.002479,0.12508,-0.13,-0.10447,-0.002443,-0.07899,0.22709,0.30359,-0.002497,-0.053464,-0.23202,-0.20649,0.048573,0.048561,-0.078959,-0.053439,0.099564,0.12501,-0.25756,0.074038,-0.053495,-0.027962,-0.053464,-0.18097,-0.002454,0.35464,0.17611,-0.10453,-0.027987,-0.002491,0.15054,-0.05347,-0.15551,-0.10444,-0.053446,-0.10445,-0.027974,0.35458,-0.20652,0.17608,-0.002485,-0.027956,-0.027974,-0.10449,0.099588,0.023059,-0.027969,0.023005,-0.028005,0.099595,-0.13,0.074057,0.023059,-0.002479,-0.25752,-0.078935,-0.05347,0.099515,-0.002497,-0.002461,0.048506,-0.053482,0.12509,-0.053476,0.099583,0.30366,0.023029,-0.15552,0.07402,-0.25755,0.023065,0.023047,0.074057,-0.12998,-0.027962,0.023047,-0.027956,0.023029,-0.10453,-0.027962,-0.002497,0.17607,0.023041,0.17609,0.20164,-0.15548,-0.25754,-0.027987,0.099534,-0.053506,-0.027974
-0.12999,-0.30852,0.023029,0.17604,0.023029,0.20158,-0.027956,0.048555,-0.10445,-0.002472,-0.28302,-0.13,-0.027969,0.17604,0.20156,0.099559,0.12508,-0.078972,0.048567,-0.15548,-0.15549,-0.23202,0.074038,0.15055,0.023029,0.22709,-0.05347,0.17609,-0.10445,-0.002467,-0.30853,-0.23202,0.048549,0.12503,0.15055,0.099552,0.15057,-0.053446,-0.027956,-0.18098,-0.15549,-0.20652,-0.002467,0.27808,0.15056,0.099564,0.048555,0.048561,-0.053458,-0.027974,-0.25753,-0.10448,-0.1555,0.30357,0.023029,0.15056,-0.002448,0.17607,-0.10446,-0.027974,-0.15549,-0.23202,-0.10449,0.17603,0.22708,0.074044,0.15059,-0.027969,0.12509,-0.283,-0.1555,-0.30853,0.09954,0.048536,0.20156,0.074057,0.15057,-0.10446,-0.078953,-0.20649,-0.07899,-0.28302,0.048531,0.12504,0.17605,0.074062,0.099546,0.09957,-0.002454,-0.053458,-0.25752,-0.10448,-0.13001,0.32908,0.048536,0.20157,-0.027956,0.074057,0.023054,-0.10448,-0.25752,-0.28303,-0.027969,0.12505,0.074038,0.17609,-0.002467,0.023054,-0.002448,-0.12998,-0.18099,-0.20652,-0.053464,0.15054,0.15056,0.12507,0.048549,0.048573,-0.027956,-0.053476,-0.18098,-0.25753,-0.02798,0.27808,0.17606,0.048536,-0.002443,-0.027974,0.048567,-0.18098,-0.18101,-0.23201,-0.053488,0.15054,0.12506,0.17607,0.074075,-0.027974,-0.027956,-0.078966,-0.078984,-0.25753,0.023047,0.20153,0.12507,0.12507,0.074044,0.074075,-0.002448,-0.078972,-0.33402,-0.20652,-0.002467,0.22707,0.22705,0.20159,0.17607,-0.027969,0.023072,-0.18099,-0.20652,-0.28302,-0.053482,0.17602,0.22708,0.048543,0.048549,0.023072,0.074062,-0.078972,-0.2575,-0.23202,0.048531,0.09954,0.20154,0.25259,0.048555,-0.002467,-0.027938,-0.12998,-0.15549,-0.35953,0.074038,0.12504,0.12506,0.15057,0.023054,0.12507,-0.027938,-0.13,-0.181,-0.18102,0.099534,0.09954,0.22706,0.099559,-0.002461,0.09957,-0.10446,-0.027969,-0.20649,-0.18101,-0.078984,0.30356,0.15056,0.17606,0.074081,0.074051,-0.02795,-0.10448,-0.23202,-0.18099,-0.027993,0.15056,0.15054,0.074057,-0.002448,0.048549,0.023059,-0.181,-0.078972,-0.30853,-0.027993,0.20157,0.12506,0.15056,0.023041,0.099564,0.023059,-0.181,-0.181,-0.25753,0.15056,0.048525,0.27808,-0.05347,0.17607,-0.10447,-0.02795,-0.15548,-0.07899,-0.23202,0.099528,0.023035,0.17606,0.074057,0.12507,-0.02795,0.074057,-0.12999,-0.25751,-0.181,0.023029,0.12504,0.25256,0.074062,0.099552,-0.078959,0.048555,-0.18099,-0.078984,-0.35954,0.048531,0.074038,0.17606,0.074062,0.099564,0.09957,0.023059,-0.05347,-0.25753,-0.23201,-0.07899,0.25257,0.12505,0.20158,-0.002443,-0.078977,-0.027944,-0.13001,-0.12999,-0.10449,-0.13001,0.099546,0.38014,0.22709,-0.23203,-0.078972,-0.053458,-0.1555,-0.10449,-0.1555,0.12507,0.023029,0.12507,-0.002454,0.30359,-0.078977,0.17609,-0.2575,-0.18101,-0.283,0.17608,0.07402,0.09954,0.074051,0.12507,-0.027944,0.074057,-0.181,-0.15549,-0.28302,-0.02798,0.023035,0.3546,-0.027962,0.22708,-0.053458,-0.027969,-0.15549,-0.002454,-0.12999,-0.053482,0.27807,-0.02798,0.17606,-0.002448,-0.053464,0.074075,-0.12999,-0.027987,-0.18101,-0.12999,0.12505,0.22707,0.074057,0.15056,0.1251,0.023035,-0.078972,-0.38504,-0.35954,0.023023,0.27807,0.074033,0.09957,-0.053464,0.20158,-0.053451,-0.053464,-0.181,-0.23202,0.023041,0.17606,0.12504,-0.002461,0.074057,-0.002448,0.074075,-0.12999,-0.12998,-0.33404,0.099559,0.12503,0.20157,-0.027969,0.17607,0.074062,0.023041,-0.20649,-0.20652,-0.15549,0.048536,0.22706,0.22706,0.12507,-0.078966,0.048567,-0.053464,-0.15548,-0.181,-0.23203,-0.10447,0.12502,0.3291,0.048543,0.09957,-0.10446,0.074057,-0.027962,-0.15552,-0.23202,-0.002467,0.074026,0.15057,0.074057,0.09957,-0.002418,0.023059,-0.1555,-0.2575,-0.28302,-0.053495,0.32907,0.12504,0.27808,0.25263,0.023059,-0.12999,-0.13001,-0.30854,-0.1555,-0.002472,0.27808,0.20157,-0.002491,0.15059,0.27813,-0.10449,-0.28302,-0.1555,-0.25754,0.048536,0.17607,0.12502,-0.15551,0.27813,0.17611,0.074087,-0.15547,-0.35954,-0.35954,-0.30854,-0.053488,0.22704,0.48214,0.32909,0.023054,-0.15549,0.023047,-0.12999,-0.35955,-0.10448,0.4056,0.45664,0.023054,0.074033,-0.18097,-0.181,0.074038,-0.002443,-0.30853,-0.35955,0.2526,0.048549,0.15053,0.32912,-0.10447,-0.1045,-0.38506,-0.30855,-0.002467,0.15057,-0.079026,0.32913,0.71175,-0.4106,-0.13004,0.099601,0.048567,-0.30855,-0.33402,-0.18102,0.30358,0.22707,0.20157,0.048543,0.074106,0.1761,-0.027974,-0.38506,-0.51259,0.30361,0.20156,-0.4106,-0.002454,0.45667,0.023047,-0.12998,-0.078959,-0.20653,-0.30853,0.099528,0.17606,0.20156,0.023054,0.32912,0.1742,0.072198,0.1487,0.023084,-0.10447,-0.48709,0.45663,0.4311,-0.41059,0.023023,-0.20653,-0.2065,-0.181,0.53319,-0.053451,-0.053482,0.25257,-0.15553,0.074057,-0.079008,-0.027974,-0.28305,0.2016,0.53321,0.48221,-0.053495,-0.25757,-0.33407,-0.079008,0.0485,-0.18101,-0.28299,0.0741,0.30366,-0.232,0.074062,0.35459,0.074033,-0.1045,-0.3341,-0.027956,0.074087,-0.1045,-0.002454,0.1506,0.074038,0.074038,-0.33406,-0.18104,0.20158,-0.30854,-0.23203,0.27813,0.38017,0.32913,-0.15551,-0.18106,0.25257,-0.078972,-0.51262,-0.18101,0.89032,-0.002461,-0.2575,0.023059,-0.13002,-0.15555,-0.028011,0.2271,-0.1045,0.074044,-0.18097,-0.25751,0.20163,0.27815,-0.15554,-0.002503,0.048536,0.17607,-0.02798,-0.2065,-0.2065,-0.07899,0.048567,0.22712,0.023047,-0.13007,0.023023,-0.002461,-0.15552,-0.10447,-0.10446,-0.002467,0.48217,-0.027938,-0.027969,-0.053525,0.048525,-0.079002,-0.02798,-0.35955,0.17609,0.15061,-0.078959,-0.002461,-0.027956,-0.2831,0.074044,0.35463,-0.15549,-0.002479,-0.12996,0.30361,-0.18099,0.074057,0.099577,-0.30858,-0.027998,0.048536,0.074069,0.15059,-0.002472,-0.10446,-0.002479,-0.00243,-0.15553,0.17607,-0.00251,-0.2065,0.099534,0.04858,0.048543,-0.078972,-0.12995,-0.18097,0.048543,-0.2831,0.022998,0.73724,-0.2065,0.048561,-0.18102,-0.05347,-0.20651,-0.053421,0.15056,-0.079021,-0.20655,-0.078977,-0.1555,0.43117,0.12509,-0.053476,0.023072,-0.002467,-0.13001,-0.23205,0.20154,-0.181,0.3036,-0.61462,0.2526,0.73729,-0.20653,-0.02795,-0.23205,-0.15551,-0.20653,-0.13004,0.32912,0.17607,-0.053458,-0.18101,-0.25753,0.45674,0.63521,-0.028018,-0.10453,-0.20656,-0.18103,-0.05347,-0.10447,-0.053446,-0.027956,-0.2575,0.17609,0.55869,-0.35962,0.15055,0.17609,-0.28303,-0.18098,0.023054,-0.10447,0.074069,-0.10449,0.15054,0.023005,-0.002472,0.023035,-0.10449,0.1761,-0.002412,-0.027956,0.048536,-0.002485,-0.00251,-0.13002,-0.1045,-0.053488,0.15061,-0.002461,-0.053427,-0.25754,0.048573,0.58418,-0.027993,-0.18108,-0.027962,-0.13001,-0.23201,-0.10449,0.099595,0.27811,0.1251,-0.0535,-0.25756,0.35461,-0.23203,-0.079002,-0.12998,0.099564,-0.002454,-0.002472,0.048585,0.023035,-0.053488,0.048518,0.023035,0.023047,-0.15551,0.12509,-0.053464,-0.10447,0.048543,0.17609,-0.028018,-0.18102,-0.10451,-0.078959,-0.028005,0.2526,0.20161,-0.28302,-0.027962,0.048567,-0.053513,0.074013,0.12507,0.048536,-0.10446,0.023054,-0.28302,-0.027987,0.20161,0.66075,-0.10453,-0.33408,-0.13002,-0.079008,0.023041,-0.027969,0.023072,0.048549,0.074075,0.074051,-0.0535,0.048506,0.074057,0.074044,-0.15548,-0.13,-0.053451,-0.12999,0.22712,-0.05347,0.048506,-0.18105,0.074038,0.09954,-0.078966,-0.078972,-0.078959,0.074038,0.1506,0.099546,0.17608,-0.13004,-0.1045,0.15056,0.048567,-0.30854,0.12512,-0.027974,-0.15548,0.023023,-0.1045,-0.028005,-0.053488,0.099552,0.023023,-0.027956,0.17609,0.27815,-0.027969,-0.20652,-0.10453,-0.028005,0.074044,-0.002467,0.35465,-0.25751,-0.12998,-0.078972,-0.18099,-0.002467,0.17606,-0.30857,-0.027969,-0.1045,-0.15551,0.22711,0.27815,-0.12999,-0.41054,-0.10449,0.45665,-0.053495,-0.053519,-0.1045,0.15057,0.04858,-0.002467,-0.10447,-0.027956,-0.20649,-0.028018,0.048512,0.30361,-0.079021,-0.232,-0.027974,0.27815,0.048573,-0.12998,0.074075,-0.028005,0.022998,-0.002497,-0.1555,0.15055,-0.002423,-0.078972,-0.15546,0.023047,0.023023,0.07402,-0.23204,-0.002503,-0.15549,0.074069,0.023065,0.074081,-0.18104,-0.10445,1.1454,0.12505,-0.23209,-0.33407,-0.25757,-0.10449,-0.027956,-0.027944,0.099583,0.023059,-0.053464,-0.079021,-0.053482,0.17606,-0.02798,-0.002454,-0.053476,0.023072,0.023035,-0.078966,-0.02798,-0.10451,0.22708,-0.027987,-0.053488,-0.002472,0.12508,-0.181,-0.078959,0.048555,0.074062,-0.002497,-0.002491,-0.053495,-0.05347,0.023041,-0.002418,-0.10447,0.074062,0.048561,-0.053495,-0.0535,0.15053,0.12509,-0.1045,0.074038,0.074069,-0.027969,-0.002443,0.023047,-0.053488,-0.07899,-0.13005,0.074033,0.099559,0.023047,-0.002454,-0.15546,0.35467,0.25262,-0.23202,0.023023,-0.028023,-0.002497,-0.10449,-0.12997,0.023047,0.023072,0.074081,0.22713,-0.1045,-0.02798,-0.079021,-0.15551,0.048555,0.2016,-0.053488,-0.12998,-0.23199,0.17609,0.09957,0.048536,0.0485,-0.23204,0.048561,-0.053495,0.048585,-0.002454,0.074069,-0.12997,-0.1045,0.17607,0.12505,-0.15553,-0.0535,-0.15548,-0.053464,0.1506,0.023035,-0.18097,-0.053482,-0.18103,0.12504,0.12506,0.27809,-0.002467,-0.12999,-0.15549,-0.12998,0.17611,0.074075,-0.10453,-0.20656,-0.078972,0.099534,0.023054,-0.02798,0.023059,0.30361,-0.078928,-0.078977,-0.053495,-0.00251,0.15058,0.074033,-0.078959,-0.027993,-0.23201,-0.078984,0.38017,-0.027974,0.20157,-0.28307,-0.053476,-0.13,-0.078977,0.023041,0.048543,0.048555,0.12509,0.023054,-0.078984,-0.002516,0.074038,-0.027987,-0.02795,-0.05347,-0.078941,-0.078996,0.12511,0.048549,-0.079021,0.048531,-0.53812,0.35464,0.25262,-0.12999,-0.181,-0.078972,-0.078959,-0.053476,0.09954,-0.002479,-0.027998,0.048549,0.099534,0.023065,-0.027944,0.048555,-0.027944,0.17608,-0.027987,-0.15554,-0.079008,-0.12999,-0.05347,-0.15549,0.1251,-0.053464,-0.078972,0.22713,0.048525,-0.10453,-0.002461,0.099552,0.048567,0.099601,-0.28301,-0.1045,-0.25751,0.09957,0.17604,-0.002497,-0.027969,-0.027987,-0.053495,-0.002448,-0.053427,-0.078953,0.09957,0.048561,0.02301,0.048512,-0.05347,-0.053476,-0.027962,-0.027938,-0.027962,-0.002485,0.25263,-0.1555,-0.079002,-0.15551,-0.10449,0.023029,-0.05347,0.023041,-0.027969,-0.18097,0.04858,0.20159,-0.079002,0.099534,-0.10451,0.023047,-0.078984,-0.078966,-0.002472,-0.10446,0.25265,-0.027987,-0.10452,-0.10453,-0.002479,-0.12999,-0.20652,0.074075,0.1506,-0.10447,0.048592,0.25262,-0.15554,-0.053513,0.048531,-0.053495,-0.078972,0.12509,-0.35957,0.099588,0.4822,-0.28302,-0.053506,-0.25757,-0.10451,0.1506,0.048536,-0.002448,-0.027962,-0.027938,0.09957,-0.13,0.07402,-0.002497,-0.053464,-0.002485,-0.10447,-0.002461,-0.078977,0.12508,0.12509,0.17612,-0.25757,-0.002497,0.048543,-0.35957,0.17612,0.023041,-0.053451,-0.002472,-0.053476,-0.078972,0.048518,0.023029,0.048549,-0.10449,0.048567,0.17607,-0.15548,0.1251,-0.30853,0.074051,0.25257,-0.33409,0.02301,-0.20652,0.023041,0.048536,-0.027931,-0.078984,-0.053433,0.25263,-0.053513,-0.079014,-0.13001,-0.053476,0.17609,-0.027974,-0.12997,-0.10448,0.048573,0.099608,-0.20654,-0.15554,0.15057,-0.002516,-0.23202,-0.002454,-0.002436,-0.078947,0.12509,-0.15551,0.074044,0.20155,0.023017,0.099588,-0.002461,-0.10449,-0.053451,-0.05347,-0.1555,0.1506,0.048536,-0.20655,-0.23203,0.048536,0.099588,-0.002443,0.074075,-0.053476,-0.002454,0.15059,-0.13001,0.022986,0.023035,-0.002461,-0.002485,0.023054,-0.002418,-0.027956,0.023059,0.048561,0.15054,-0.028005,-0.053495,-0.10452,0.023065,0.1761,-0.027969,-0.053464,0.074062,-0.078959,-0.027987,-0.053544,0.30361,-0.20654,-0.10449,0.12511,-0.078984,-0.02795,-0.078972,-0.2065,0.17606,-0.079039,-0.002472,-0.28305,0.074057,0.30363,-0.027944,-0.027969,-0.027938,0.023029,-0.15548,0.074013,-0.15551,-0.13001,0.023059,0.20158,-0.027938,0.12507,-0.078966,0.2271,-0.079008,-0.18105,0.023054,-0.1555,-0.23201,0.15059,0.023072,-0.10448,-0.002461,-0.027969,-0.002497,-0.079008,0.07402,-0.12999,0.023041,0.04858,0.15062,-0.07899,-0.053476,0.023041,0.099521,-0.053506,-0.002472,-0.10449,0.023047,0.048561,-0.053458,-0.002436,-0.027969,-0.10449,0.099546,0.20155,0.09954,-0.20653,-0.12999,0.023054,0.023029,-0.078977,0.12507,-0.078947,0.099534,-0.079002,0.023023,0.023054,0.048536,-0.002461,-0.078996,0.0741,0.099595,-0.18099,-0.10452,0.20156,-0.13001,-0.027987,0.023041,0.023047,-0.15548,-0.053476,0.22713,0.048549,-0.027987,-0.20655,-0.0535,0.074051,-0.12999,0.30364,-0.10447,0.074051,-0.02795,-0.078959,-0.002503,0.12503,-0.002485,-0.002472,-0.027962,0.048555,-0.10446,-0.07899,-0.002436,0.023054,-0.002485,-0.0535,0.023029,-0.18103,0.15058,0.25262,-0.181,-0.027969,-0.027969,-0.181,0.074013,-0.10452,-0.1045,0.15059,0.1506,-0.078972,-0.12999,-0.002454,-0.078972,-0.027974,0.099564,0.022992,-0.12999,-0.002467,-0.027987,0.048555,0.074062,0.023047,0.048567,0.023047,-0.18101,0.09954,0.20158,-0.002467,0.048549,-0.053482,-0.10447,0.023059,-0.053464,-0.10446,0.099528,-0.079008,-0.10449,0.023029,0.023041,0.074075,0.12509,0.074062,-0.053464,0.17608,-0.10449,-0.15554,-0.15553,-0.10449,0.048543,0.04858,0.074087,-0.053476,-0.053451,0.023035,-0.0535,0.02301,0.048512,-0.20652,-0.002443,0.32913,-0.10446,-0.002443,-0.053476,-0.15549,-0.002491,-0.15552,0.12505,-0.027969,0.12507,-0.002461,0.099577,-0.15551,0.074087,0.048561,-0.078996,-0.027998,-0.23206,-0.12998,0.22712,-0.12999,-0.053464,0.048561,-0.10445,-0.027969,-0.027993,-0.002491,0.02301,0.099564,0.023072,-0.078966,-0.002472,-0.002461,-0.078941,0.023041,-0.079002,-0.079002,0.09954,-0.002479,-0.053458,0.20161,-0.15549,-0.027956,-0.15548,-0.1045,-0.027969,0.022998,0.12503,-0.027969,0.074069,-0.002467,-0.10447,-0.002461,-0.10447,-0.053464,0.15054,-0.053525,0.12507,0.048525,-0.181,-0.15547,-0.002436,-0.027969,0.099595,0.1506,-0.028011,-0.10452,0.023023,0.074033,0.023047,0.023054,-0.002448,-0.078941,-0.027944,0.074044,-0.027974,0.0485,0.023005,0.074044,-0.078972,-0.002472,-0.078947,0.12507,0.15061,0.023035,-0.13,-0.028018,-0.30858,0.27812,0.27815,-0.027987,0.023047,-0.20649,-0.078972,-0.027962,-0.028005,-0.18103,0.074057,0.099577,0.074013,-0.002454,0.074062,-0.078953,0.048555,-0.027974,0.048536,-0.079026,0.074044,-0.078977,0.023059,-0.10449,0.023065,-0.027974,0.048573,0.099559,-0.078984,0.048494,-0.002485,0.023029,0.023035,0.25263,-0.12997,-0.10447,-0.10451,-0.053458,-0.028005,0.099534,0.099528,0.074075,-0.002472,-0.10447,-0.002461,0.40569,-0.053476,-0.15549,-0.10451,-0.15553,-0.13003,0.09957,-0.002479,-0.027938,-0.12998,-0.002454,0.048561,0.023029,-0.02798,0.022998,-0.053495,0.17607,0.048543,-0.078977,-0.027938,0.023065,-0.12997,0.074062,0.023005,-0.079021,0.074075,-0.027987,0.074044,-0.027944,-0.027974,0.099577,-0.053446,-0.002472,-0.027987,0.023005,0.07402,0.074051,-0.027969,-0.027969,-0.002423,0.048549,0.048543,-0.053446,-0.1045,0.17603,-0.027969,-0.10449,-0.15549,-0.053451,0.20159,0.17609,-0.10444,-0.1045,-0.079021,0.023023,0.2781,0.099552,-0.07899,-0.13,-0.12999,0.048573,0.099583,-0.002467,-0.10449,0.022992,-0.053482,-0.027974,0.074033,0.023072,-0.053451,0.023054,-0.027956,0.023029,-0.053476,-0.028018,0.02301,-0.05347,0.048555,-0.15549,-0.053446,0.17609,-0.027974,-0.027956,0.09954,0.048487,0.048531,-0.002485,0.023041,0.099608,-0.027969,-0.002461,-0.12997,0.099577,-0.13001,-0.13004,0.17604,0.048536,0.023041,-0.002467,0.023059,0.023054,-0.002461,-0.027956,-0.053488,0.048506,-0.07899,0.074033,-0.027944,-0.053476,-0.02795,0.22714,-0.027969,-0.18099,-0.027987,-0.10455,-0.027969,0.099534,-0.053458,0.023065,-0.078972,-0.283,0.2526,0.27814,0.022998,-0.028011,-0.0535,-0.15551,0.099564,-0.05347,-0.12996,-0.07899,0.27815,0.023065,-0.20653,0.048518,0.20157,-0.078984,-0.13001,-0.002454,-0.12998,0.048567,-0.002472,-0.027938,-0.028005,0.099534,0.022998,-0.002454,-0.15551,-0.15548,0.40568,0.17611,0.023035,0.048549,0.048506,-0.18106,0.074038,0.074062,-0.053464,-0.053458,0.074081,-0.002467,0.048555,-0.078947,0.048536,-0.079008,0.09954,-0.002491,-0.053446,0.074057,-0.078947,0.048549,-0.002454,-0.027969,0.023029,0.074038,-0.027993,-0.053488,-0.002454,0.023035,-0.02795,-0.053464,-0.05347,0.09957,0.02301,0.074044,-0.053513,-0.078977,-0.002454,0.023054,-0.078972,0.2271,-0.053451,0.048536,0.023047,0.048482,-0.02798,0.023041,-0.078977,-0.053427,-0.002448,-0.078996,-0.027925,0.20161,0.02301,0.02298,0.023023,-0.027993,0.074069,-0.078959,-0.027969,0.074081,-0.078972,-0.10446,-0.027987,-0.002521,0.074044,-0.002454,-0.002485,-0.12999,0.048592,0.38017,-0.12999,-0.15549,0.048536,0.22707,-0.20653,-0.10452,-0.23204,0.22711,0.22713,-0.12998,-0.027956,-0.18099,0.023029,-0.13004,0.023047,0.074044,-0.027969,0.099577,-0.027969,0.048561,0.074057,-0.15546,0.074026,0.022992,0.048531,-0.027987,-0.002467,0.074057,0.074087,-0.053464,-0.053458,-0.12998,-0.079002,-0.028018,0.048536,-0.027974,-0.181,0.023059,0.15059,-0.027944,0.048555,-0.10449,-0.002454,0.12502,-0.079002,0.023041,0.048536,0.023047,0.074087,0.074051,-0.078966,-0.002454,0.2526,0.023017,-0.079002,-0.078972,0.023029,-0.078966,0.048549,-0.02795,0.048543,-0.10447,-0.002467,0.048525,-0.18104,0.099552,0.25262,-0.1555,0.023065,-0.027993,-0.027938,0.023035,0.048543,-0.10453,0.074038,0.3291,-0.027956,-0.002472,-0.12995,0.048573,-0.027925,0.023035,-0.10449,0.17602,-0.078996,0.12504,-0.027969,0.048543,-0.053446,-0.027956,-0.10446,-0.053433,-0.079014,0.099534,0.023017,0.048536,-0.027962,0.023047,-0.00243,-0.18103,0.074087,0.27812,-0.027969,0.048487,-0.10451,0.07402,-0.05347,0.12506,-0.027931,0.023041,-0.18097,-0.027944,-0.027969,0.0485,-0.027987,0.074038,0.074057,-0.05347,0.023054,0.048549,-0.053439,-0.02798,0.023035,0.20152,-0.078977,-0.053488,0.048561,-0.027969,0.099583,-0.078959,0.099583,0.074051,0.12505,-0.10453,-0.027987,-0.027969,-0.027969,0.20161,-0.053451,-0.10447,0.12507,-0.10447,-0.053513,0.12504,-0.18103,0.023041,-0.053464,-0.027956,0.048567,0.048536,0.099588,0.074051,-0.02798,0.048518,-0.027987,0.023047,-0.002479,-0.078947,-0.027944,-0.078966,-0.002443,-0.053482,-0.07899,0.17604,-0.079002,-0.078972,0.099552,-0.027974,0.023084,-0.027956,-0.002467,-0.002448,-0.002479,-0.053537,0.074062,0.09954,0.074069,-0.027956,-0.15549,-0.10445,-0.078959,-0.002467,0.048518,0.12502,-0.053513,0.023047,-0.05347,0.12509,0.023047,-0.002436,0.15057,0.048573,-0.053495,-0.13002,-0.079002,-0.1045,-0.027956,0.048536,-0.053439,-0.027969,0.023059,-0.027944,-0.10449,0.22704,-0.028011,0.023047,-0.002467,-0.10445,0.074062,-0.027962,0.048543,0.17612,0.023047,-0.15554,-0.002479,-0.027998,-0.027969,-0.027974,-0.053446,0.074062,-0.12998,-0.078959,-0.027998,0.20156,0.07402,0.048536,-0.002461,-0.027962,0.074087,0.12508,-0.027962,-0.02795,-0.002479,-0.053513,-0.053488,0.048506,-0.002461,-0.027969,-0.02792,0.023047,0.099577,-0.10448,-0.078972,0.22707,-0.13001,0.20158,-0.053482,0.048536,-0.078953,0.048555,0.023054,-0.10447,-0.027998,-0.079008,-0.002485,-0.002436,-0.027974,-0.078959,0.15057,-0.027956,0.074051,-0.078972,-0.027969,0.048512,0.09954,-0.078996,-0.12998,-0.027956,-0.078941,0.023047,-0.027956,0.25262,-0.028005,0.022992,-0.13002,0.023047,-0.027974,0.074069,-0.002454,-0.027938,-0.053464,0.023054,0.15059,0.022998,-0.10451,-0.027969,-0.13,0.074057,0.023054,0.023078,0.048561,-0.10449,-0.002472,-0.028018,0.023005,-0.02798,-0.02795,0.074062,-0.05347,-0.027944,0.074062,-0.002472,-0.027962,0.15052,-0.079002,-0.053464,-0.053482,-0.002448,-0.002443,-0.10447,0.048567,-0.053464,0.023047,0.048494,0.048531,0.048512,0.099583,-0.078984,-0.18098,0.27811,-0.078953,-0.1555,-0.25753,0.3801,-0.053506,-0.078984,-0.002461,-0.078953,0.12507,-0.10447,0.15057,-0.10447,-0.027993,0.023017,-0.028005,0.023035,0.023047,-0.053458,0.048555,-0.027962,0.023065,-0.002454,-0.053476,0.17603,-0.0535,0.023029,0.074044,-0.12998,0.074075,-0.181,0.099577,-0.002454,0.048543,0.20154,-0.002467,-0.002491,-0.05347,0.048561,-0.18098,-0.002436,-0.053482,-0.078959,0.099528,0.32905,-0.002472,-0.1555,0.023059,0.023047,-0.02795,0.04858,-0.002454,-0.02795,0.023035,0.048482,-0.027987,0.023029,0.048543,-0.15547,0.023078,0.099564,-0.002436,-0.18098,-0.15553,0.3801,0.17606,-0.13002,-0.12998,-0.078959,-0.002448,0.048549,-0.027925,0.023047,0.048536,-0.053495,0.023017,0.048518,0.023054,0.048567,-0.002454,-0.002454,0.12509,0.048549,-0.02798,0.20154,-0.002497,-0.13001,0.023054,-0.078984,0.12509,0.023041,-0.002443,0.048555,-0.027969,-0.002503,-0.15549,-0.05347,-0.078984,0.12508,-0.053464,0.048561,-0.027969,0.074069,-0.078996,0.17606,-0.15553,0.048543,-0.027962,0.12506,-0.12996,0.048561,0.048555,0.17606,-0.12999,-0.002497,-0.002467,-0.02798,0.099559,0.023029,-0.053433,-0.002467,-0.027938,-0.027969,0.023054,0.25254,0.023017,-0.053488,-0.002479,0.074069,-0.053451,-0.002436,0.074069,-0.053446,-0.027993,0.023005,-0.002491,-0.053495,0.048561,0.15057,-0.078953,-0.05347,-0.053446,0.023035,-0.027969,0.17602,-0.078984,0.023017,0.023065,0.023041,0.074081,-0.027969,0.023054,-0.078966,-0.027974,0.048506,0.048518,-0.002472,-0.12998,0.074051,0.048561,-0.002454,-0.027969,-0.002418,-0.0535,0.20155,-0.079014,-0.002491,-0.078959,0.023035,0.20162,-0.027962,-0.027944,-0.002443,-0.07899,0.048518,-0.028018,0.023035,0.048536,0.074051,-0.027938,-0.027969,-0.027931,-0.05347,0.023047,0.12502,0.023023,-0.02798,0.023041,-0.027944,-0.053433,-0.05347,0.048561,-0.027962,0.048536,-0.13005,0.074013,-0.002461,-0.053451,0.074062,-0.10444,0.023059,-0.12996,0.15057,-0.002472,0.27803,-0.20653,-0.053488,-0.05347,0.22709,-0.078959,0.048585,-0.002448,-0.002443,-0.002497,-0.053506,0.048506,0.099564,0.074044,-0.10445,0.048549,-0.10446,0.074057,-0.10446,0.048531,0.099534,0.023005,-0.12999,0.048543,0.023047,0.099559,-0.053464,0.074081,-0.053464,-0.027987,-0.079021,0.27811,-0.18101,0.023054,-0.078977,0.074075,-0.10448,0.099564,-0.078972,0.074057,0.048506,-0.002485,-0.1045,0.023035,0.099577,-0.027956,-0.002448,0.023059,-0.027956,0.023035,-0.053519,0.099534,-0.027993,-0.027944,-0.027969,-0.078966,0.074062,-0.078972,0.023072,0.02301,0.17604,-0.079008,-0.053488,-0.10447,-0.027969,0.023072,0.09954,0.023059,0.074075,-0.053495,0.20156,-0.13003,-0.10449,-0.079008,0.09957,0.023054,0.048543,0.074093,-0.027962,-0.027987,0.12502,-0.20653,-0.18101,-0.002472,0.048549,0.074069,-0.027944,-0.027962,0.048561,0.074033,-0.027998,0.074013,0.023029,-0.002461,0.023054,0.048573,-0.078972,-0.027938,0.023054,-0.078984,0.20153,-0.079021,-0.027962,-0.002479,-0.078959,0.048555,-0.053451,0.15057,-0.10446,-0.002467,-0.053525,0.048525,-0.002485,-0.053464,0.048555,-0.002436,0.048567,-0.12998,-0.15546,-0.079002,0.35461,0.074008,0.023017,-0.053482,-0.10449,-0.027938,-0.078966,0.099564,-0.05347,0.074057,-0.053537,0.048536,-0.002467,-0.027962,-0.027969,-0.15548,0.048573,0.048555,-0.12996,0.048531,0.12502,0.023017,-0.053495,0.048555,-0.002472,0.023072,-0.002461,0.023078,0.09957,-0.002467,-0.002516,-0.002497,0.023035,-0.078977,-0.12998,0.023054,-0.027938,0.12507,-0.053446,-0.027993,0.20154,0.048525,0.023029,0.023029,-0.053482,0.023072,-0.027969,-0.00243,0.074051,-0.078972,-0.079033,0.023029,0.048531,-0.10449,0.048555,-0.05347,0.099577,0.074062,-0.10445,0.099534,0.15053,-0.1045,0.023029,0.023041,-0.078972,-0.00243,0.048536,0.04858,-0.002461,-0.05347,0.02301,0.02301,-0.053476,0.023023,-0.002436,0.023059,-0.053464,-0.053433,-0.002467,-0.002461,0.125,-0.053506,-0.053488,0.074069,0.074069,-0.078966,0.023072,0.30364,-0.12999,-0.078984,-0.028018,0.022998,-0.027987,-0.027969,-0.053446,0.048543,-0.027938,0.023059,0.023035,-0.10449,0.20153,-0.1045,0.17606,0.023029,-0.02795,-0.078966,-0.002436,-0.027944,-0.027962,-0.002461,-0.028018,0.048518,0.048536,-0.002485,-0.002436,0.048555,-0.002448,0.023059,-0.07899,-0.12998,0.12501,-0.07899,0.074044,0.023041,-0.027956,-0.002461,-0.053446,0.074062,-0.002443,-0.002479,-0.13003,-0.0535,-0.078996,0.099552,-0.078977,0.04858,-0.078972,-0.002436,0.074057,-0.053476,0.17603,-0.13002,-0.027969,0.12504,-0.027969,-0.078947,-0.078953,-0.002448,-0.10445,0.12505,0.048487,-0.13,0.048543,0.12504,-0.10449,0.048561,0.048573,-0.027944,-0.002472,0.074044,0.074026,-0.079021,-0.027987,-0.10447,0.20161,0.099552,-0.002443,-0.027956,-0.12998,-0.053495,0.023005,-0.07899,0.12505,0.048531,0.023054,0.023078,0.074062,-0.078972,-0.12998,-0.002472,0.099515,-0.15552,0.023047,0.023029,-0.027962,-0.002436,-0.002448,-0.02795,-0.002448,-0.002479,-0.028018,0.02301,-0.027974,0.048525,0.048555,0.048561,-0.078966,-0.10444,-0.053451,0.12504,0.12503,-0.053519,-0.02798,-0.002467,0.048536,0.023065,0.023059,-0.002443,-0.002423,-0.053482,-0.079008,0.074013,-0.002467,0.074057,-0.002472,-0.053446,0.023047,-0.15546,0.048561,0.023023,0.17605,-0.0535,-0.20652,0.023029,0.15059,-0.12997,0.023047,-0.078966,0.074081,0.048525,-0.079008,0.02301,-0.002485,0.048561,0.023047,-0.002454,0.099583,-0.002454,-0.002454,0.048543,0.12502,-0.10452,-0.027969,-0.002461,0.074057,0.023084,-0.002454,-0.002461,-0.10444,-0.13,0.023005,0.099534,0.099528,-0.10449,-0.078947,0.17609,-0.05347,-0.027938,-0.027956,-0.053482,-0.002491,-0.028005,-0.079008,0.074051,0.048549,0.074062,0.12509,0.074051,-0.027944,0.074038,-0.20655,0.12505,0.12505,-0.078984,0.023047,-0.18099,-0.15548,0.074069,0.074081,-0.027969,0.073995,-0.053495,0.048525,0.023059,0.023035,-0.027938,0.023047,0.04858,0.048549,0.048555,-0.079021,-0.053476,0.15054,-0.002467,0.023041,-0.002443,0.074044,-0.05347,-0.002436,-0.078984,0.074044,0.022998,-0.053482,0.048536,-0.053458,0.048561,0.048561,0.12509,-0.10447,-0.027956,0.048506,-0.027987,-0.027998,-0.07899,0.27813,-0.002461,0.048561,-0.002461,-0.15548,-0.027987,-0.002497,-0.079008,-0.10449,0.048536,-0.027944,0.12507,0.023054,0.048561,0.074069,-0.053476,-0.053519,-0.079014,0.074038,-0.002454,0.023035,-0.078947,-0.053482,-0.00243,0.048573,-0.078984,0.17603,-0.079021,-0.02798,-0.002454,-0.027956,0.099564,0.074075,-0.078972,0.09957,-0.027974,-0.002503,-0.053488,0.048536,-0.078984,0.023047,-0.02795,0.074051,-0.078953,0.048561,-0.05347,0.12502,-0.18102,0.048525,-0.05347,0.074051,-0.002448,0.048567,0.023041,0.023072,-0.078984,-0.053476,0.022998,0.048525,-0.002491,-0.002461,0.023059,-0.02795,0.023059,-0.027974,-0.027956,0.099515,-0.13002,0.099552,0.074038,-0.078959,0.074069,-0.027962,-0.027931,-0.15548,0.048525,0.048506,-0.027998,-0.10448,-0.002485,-0.002436,0.12507,-0.10447,-0.027944,0.2016,-0.078977,0.0485,-0.0535,-0.13002,0.048555,-0.078972,0.048561,-0.053451,0.074051,-0.10446,0.074044,-0.078996,0.15053,0.023023,-0.002485,-0.078959,0.074051,-0.078953,-0.002454,-0.002454,0.048549,-0.053506,-0.053495,-0.053488,-0.027969,-0.12996,0.023059,0.15057,0.09957,0.048549,-0.12998,-0.10454,-0.053476,0.048518,0.074069,0.074051,0.074087,-0.078972,0.023054,0.048555,-0.12998,0.022998,-0.25754,0.074026,-0.05347,0.048549,-0.002436,0.15057,0.023047,0.074069,-0.078996,0.099528,0.023005,-0.07899,0.17609,-0.12998,-0.18098,0.048543,-0.027962,0.12508,0.023029,0.023029,-0.053519,0.074044,-0.002467,-0.078977,0.048573,-0.05347,0.12505,0.099588,-0.07899,-0.053531,-0.078996,-0.02798,0.023035,0.04858,-0.002467,-0.053446,-0.027956,0.048555,0.099564,-0.028011,-0.15551,0.023023,-0.053464,-0.053458,0.023054,-0.002454,0.074051,-0.053439,0.048525,-0.053495,-0.079014,0.023035,0.074038,-0.053476,0.048561,0.023047,-0.002423,-0.053451,-0.053476,0.099528,-0.079033,-0.002461,-0.027969,-0.002448,0.023072,-0.002467,-0.10445,0.12507,0.048543,-0.053513,-0.002503,0.2016,0.02301,-0.002461,-0.002461,-0.053458,-0.002461,-0.12996,-0.1045,0.048518,-0.079008,0.048518,0.023054,0.023035,-0.053446,0.048555,-0.053458,0.074075,-0.078996,0.048512,-0.002497,-0.027969,-0.053482,-0.078966,-0.002436,0.048536,0.023047,0.023054,-0.181,0.048536,-0.13004,-0.053495,-0.053476,-0.027969,-0.027938,0.048561,-0.002454,0.074081,0.074038,-0.027998,0.074026,-0.1045,-0.027969,0.074051,-0.002461,0.04858,-0.05347,-0.078959,0.074038,-0.079002,-0.10451,-0.027993,0.023047,0.048561,0.023059,-0.053451,0.074075,-0.05347,-0.002467,0.023023,-0.028011,-0.079002,-0.078977,-0.027969,0.09957,-0.027944,-0.10445,0.023065,-0.078996,-0.028005,-0.079008,-0.027993,0.023041,0.074075,0.048555,0.048561,-0.002423,-0.078959,-0.10448,0.07402,-0.00251,-0.053476,0.048543,-0.10448,0.048573
-0.15551,-0.18103,0.023035,-0.078972,-0.15547,0.17609,0.023059,-0.027969,0.27808,0.15056,-0.1555,-0.13,-0.078984,-0.232,-0.10447,0.099559,-0.078959,0.09957,0.20156,0.15055,-0.078996,-0.13002,-0.15549,0.023029,-0.078947,0.048561,-0.002448,-0.12997,0.20155,0.17606,-0.13002,-0.027993,-0.10447,-0.10449,-0.002454,-0.027956,0.074057,0.023047,0.25257,0.15054,-0.18102,-0.13,-0.20649,-0.078977,-0.10446,0.12508,-0.078966,-0.002436,0.15054,0.15057,-0.053513,-0.25752,-0.002472,-0.078966,-0.053476,-0.00243,0.023059,0.09957,0.099546,0.17606,-0.23202,-0.079002,-0.1555,0.023054,-0.002472,-0.027938,-0.027969,0.074075,0.12504,0.12506,-0.053506,-0.20651,-0.027969,-0.078977,-0.027962,-0.027956,-0.02795,0.074062,0.17605,0.15056,0.023023,-0.23205,-0.053458,-0.05347,-0.027969,-0.002436,-0.078972,-0.002448,0.15057,0.20155,-0.1045,-0.13001,-0.002461,-0.078977,-0.027944,-0.02795,0.023047,-0.078966,0.22707,0.17605,-0.078996,-0.23204,-0.027969,-0.027987,-0.053446,0.023041,-0.027931,0.099564,0.074051,0.099546,-0.20652,-0.027987,-0.1555,0.099564,-0.18098,-0.027956,0.023054,0.023047,0.12506,0.12504,-0.002479,-0.35955,-0.027969,-0.2065,0.09957,-0.053451,0.074062,-0.053451,0.22707,0.15056,-0.1045,-0.18101,-0.15548,0.023041,-0.15547,0.074051,-0.10447,0.15057,0.099546,0.25256,-0.053495,-0.25753,-0.15549,-0.05347,0.048561,0.048555,-0.053464,-0.053446,0.15054,0.15057,-0.053513,-0.1555,-0.1045,-0.078953,-0.053476,-0.078953,0.074062,-0.002448,0.20156,0.12505,0.074026,-0.23202,0.023035,-0.12999,-0.002448,-0.002454,0.023054,-0.002454,0.17607,0.099546,-0.027987,-0.10451,-0.13,0.12507,-0.18098,0.12508,-0.18098,0.074051,0.074051,0.15054,-0.002485,-0.25754,-0.027969,-0.23201,0.074069,-0.078972,0.04858,0.048543,0.17608,0.17604,-0.002467,-0.053495,-0.078972,0.023035,-0.10446,-0.053464,-0.02795,0.023047,0.17606,0.17604,-0.1555,-0.079008,-0.12998,0.023035,-0.10445,0.048555,-0.027944,0.099552,0.17608,0.17604,-0.002472,-0.23203,-0.078977,-0.05347,-0.10447,0.023035,0.048573,0.023035,0.09957,0.15053,-0.1045,-0.10451,-0.2065,-0.002454,-0.10449,0.048567,-0.053458,0.048573,-0.027969,0.25257,-0.18101,-0.20653,-0.027969,-0.002461,-0.10449,0.09957,-0.027956,0.048555,0.17606,0.074044,0.02301,-0.23203,-0.10449,-0.078972,-0.053464,-0.078959,0.099564,-0.02795,0.20156,0.15057,-0.002497,-0.15549,-0.002472,-0.027969,-0.05347,0.023054,0.048561,0.048555,0.099552,-0.002461,0.07402,-0.13001,-0.12999,-0.002472,-0.10446,-0.002467,-0.10446,-0.10448,0.099552,0.15055,-0.027987,-0.10452,-0.078966,-0.078984,-0.078953,-0.053476,-0.10445,0.099552,0.12507,0.22705,-0.1045,-0.053495,-0.12998,0.048555,-0.18098,0.20158,-0.10447,0.15057,0.048536,0.22707,-0.079008,-0.20651,0.023029,-0.078966,-0.027962,-0.10446,0.15058,-0.078972,0.12506,0.17604,-0.002485,-0.15551,-0.18101,0.048555,-0.20649,0.048555,-0.078953,0.099559,0.074057,0.17604,-0.07899,-0.13001,0.023029,-0.12998,0.023047,-0.002448,0.099564,-0.002472,0.15057,0.20156,-0.053495,-0.20652,-0.13,0.074057,-0.23199,0.12507,-0.12997,0.12508,0.074038,0.22707,-0.053495,-0.027987,-0.13,0.048555,-0.05347,0.048561,0.023047,0.048561,0.074038,0.22707,-0.027987,-0.18101,-0.027987,-0.10447,-0.002461,-0.078959,0.12507,-0.02795,0.20157,0.12504,-0.10451,-0.002485,-0.12999,0.023035,-0.053446,-0.078972,0.048561,0.048561,0.25257,0.048543,0.023035,-0.18102,-0.2065,0.074038,-0.078972,0.074075,0.074062,-0.10447,0.20158,0.25256,-0.053488,-0.18101,-0.027987,-0.002448,-0.10447,-0.002461,0.099583,-0.002467,0.023035,0.3036,0.022998,-0.23203,-0.07899,-0.10447,-0.15546,0.023047,0.023065,-0.027956,0.12505,0.20157,-0.10452,-0.053488,-0.13,0.048555,-0.23199,0.15057,-0.002454,0.074062,-0.053495,0.22707,0.15057,-0.15552,-0.1555,-0.002454,-0.12998,0.09957,-0.05347,-0.078972,0.15055,0.17608,-0.10451,-0.25751,0.07402,-0.002454,0.074038,-0.027931,-0.12998,-0.027956,0.22708,0.38014,-0.18103,-0.20653,-0.25753,-0.053476,-0.35956,-0.20653,0.91582,0.22711,-0.027993,0.30358,-0.30855,-0.20655,-0.25751,-0.002454,-0.28302,0.2271,0.099588,-0.13001,0.17607,0.45664,0.048536,-0.20653,-0.10452,-0.283,0.30366,-0.15549,-0.12998,-0.10447,0.15054,0.32907,-0.053488,-0.1045,-0.25752,0.12507,0.38016,-0.20651,-0.053439,-0.28303,0.35462,0.48211,-0.079008,-0.28305,-0.28303,-0.4106,0.22712,0.20164,0.17614,-0.25755,0.2781,0.86474,-0.38509,-0.35957,-0.43609,-0.078977,-0.15551,0.048549,0.099626,0.074069,0.048549,0.27808,-0.002479,-0.13001,0.023029,-0.23201,0.048555,-0.002436,-0.078984,-0.078972,0.38013,-0.053519,0.09954,-0.1045,0.22521,-0.004307,0.021195,0.046696,0.1487,0.0977,0.22521,0.19971,-0.25755,0.58421,0.35462,-0.28306,-0.078966,-0.35954,-0.078941,-0.002448,-0.07899,0.27804,-0.053495,-0.002485,-0.053451,0.15057,0.074081,-0.078972,0.20163,-0.078972,-0.25754,0.09954,0.023029,0.099534,-0.15549,0.023047,-0.027944,0.048549,-0.053464,0.048561,0.048518,-0.002491,-0.028005,-0.30857,0.1506,0.38015,-0.078959,-0.12999,0.023059,0.074081,-0.002503,0.2781,-0.20653,-0.25755,-0.15551,-0.33404,-0.002436,0.27811,0.023054,-0.05347,0.099546,0.25256,-0.41057,0.43111,-0.53809,0.48219,0.074062,-0.43604,0.32911,-0.76761,0.15056,0.27805,0.048536,0.81368,-0.69113,0.12509,-0.3595,0.48216,-0.41057,-0.20652,-0.07899,0.074033,-0.0535,0.35461,0.023054,0.048543,-0.078984,0.2271,0.58419,-0.38503,-0.28303,-0.53815,0.60968,0.023023,-0.41058,0.43115,-0.23199,0.50768,0.30363,-0.66559,-0.25758,-0.10452,1.0178,-0.71668,-0.28303,0.40569,0.20156,0.023041,0.048573,-0.33404,-0.35957,0.32909,0.074051,0.27808,-0.58908,0.17609,-0.28304,0.71171,0.38013,-0.53809,-0.46157,-0.027993,-0.20655,0.15055,0.43116,0.2271,0.023047,-0.027956,-0.1045,-0.2575,-0.23204,0.40562,-0.002479,-0.18104,-0.35956,0.099577,0.53322,-0.43607,0.099583,0.35467,-0.28308,-0.23206,0.099559,-0.079026,0.12509,0.38016,-0.15548,-0.38509,0.074069,1.0178,-0.18101,-0.079045,-0.43612,0.048536,0.2271,-0.2575,-0.027944,-0.053451,0.12509,-0.053451,-0.027987,0.15054,-0.23205,0.15059,0.17612,-0.053488,0.048573,-0.002479,-0.12996,-0.1045,0.074033,-0.00251,0.048543,0.048543,0.074044,-0.078972,0.074087,0.099601,-0.2575,-0.23202,0.074038,0.48214,-0.28303,-0.15552,-0.15553,0.17609,-0.05347,0.099595,0.048561,-0.10448,-0.002497,-0.18106,0.17603,0.048573,-0.027993,0.099595,0.023059,-0.15547,-0.181,0.50772,-0.028018,-0.053513,-0.35961,-0.002467,0.50769,-0.35958,-0.10448,-0.078984,0.1506,-0.13,-0.002454,0.38011,0.20158,-0.002503,0.048549,0.048536,-0.12997,-0.07899,-0.18097,0.074062,0.20158,-0.053506,-0.13002,0.048555,0.048543,-0.027938,-0.181,0.074062,0.1506,-0.002461,-0.027993,-0.13004,0.27811,0.023047,-0.18103,0.048561,-0.10447,0.023041,-0.002443,-0.002448,0.22711,0.15054,-0.079021,-0.20653,-0.053476,-0.1045,0.22712,-0.078959,-0.1045,0.023035,-0.027987,-0.079026,0.35461,-0.053464,-0.13,-0.053495,-0.027956,-0.20651,0.22713,0.3292,-0.18105,0.074008,-0.13004,-0.33409,0.099559,0.25262,0.32918,-0.078996,-0.18099,-0.12999,-0.23204,0.27808,-0.10452,0.099564,-0.1045,-0.12999,0.22715,-0.15551,0.30365,0.09957,-0.15553,-0.18105,-0.20652,0.40564,0.099534,-0.12999,0.023059,-0.10448,-0.12996,0.023041,-0.002479,0.07402,0.074044,-0.002448,-0.053488,-0.078947,0.074062,-0.078966,-0.07899,0.048561,0.048555,0.35459,-0.28306,-0.053513,0.099588,0.15059,-0.05347,-0.2575,-0.15549,-0.002436,-0.10453,0.09954,0.40563,-0.20653,0.099564,0.099588,0.12509,-0.13,-0.18099,-0.027962,-0.10449,0.17603,0.074038,-0.079002,-0.10449,0.12509,0.099577,0.023065,0.074057,-0.078947,-0.078996,0.048512,0.023023,0.20157,0.074057,-0.18102,0.099595,0.1251,-0.41056,0.023047,0.2526,-0.15554,-0.41057,-0.13,0.38015,0.30361,0.20162,-0.10452,-0.23201,0.09957,-0.23203,-0.028005,-0.10451,0.048555,-0.10449,0.25262,0.15059,-0.12996,-0.078984,-0.078953,-0.002479,0.35459,0.074026,-0.05347,-0.10449,-0.002472,-0.10445,-0.002461,-0.02795,0.074051,-0.027969,0.0485,-0.078996,0.048536,0.023054,0.048549,-0.027944,0.074062,-0.12997,0.023059,-0.10452,0.074013,0.099552,0.2781,0.20159,-0.33404,-0.28303,0.04858,0.30364,-0.18098,-0.33408,0.17604,0.022992,0.09957,0.17609,-0.053451,0.15057,-0.027956,-0.078972,-0.002436,0.074051,0.022986,0.099515,0.048555,-0.078984,-0.05347,-0.2065,0.27812,0.43118,-0.23202,-0.23202,0.12502,-0.13,-0.028005,0.023041,-0.078977,-0.027925,0.12507,-0.02792,-0.027969,0.15056,0.15051,-0.053482,-0.18103,0.43115,-0.25756,0.099608,0.27814,0.40569,-0.28305,-0.23204,-0.30859,-0.20653,-0.027993,0.15057,-0.10449,-0.15548,0.2016,0.25265,0.20159,-0.002461,-0.18106,-0.20652,-0.053482,-0.078977,-0.13002,0.023065,0.074062,-0.12998,0.074081,0.023041,0.074033,-0.053519,0.22709,0.22708,-0.10447,-0.10447,-0.15549,-0.053464,0.023035,0.023035,0.20153,0.09957,-0.07899,0.022992,0.17609,-0.002412,-0.28301,-0.18101,0.22711,-0.002467,-0.002546,0.048525,0.023047,-0.078972,-0.027969,-0.12997,0.32913,-0.05347,-0.2575,0.023035,0.30356,-0.18102,0.099559,-0.18102,-0.12998,0.35469,0.12506,-0.20653,-0.027962,0.22707,-0.15554,-0.20652,0.099564,-0.25754,0.023065,0.099608,-0.2065,0.048573,0.074038,-0.027987,0.25257,-0.13002,-0.02795,-0.23203,-0.181,0.40568,0.30363,-0.12999,0.023047,-0.13002,-0.13002,-0.0535,0.048555,-0.078972,0.023041,-0.002436,0.023035,0.074069,0.15058,0.2526,0.02301,-0.18103,-0.10448,-0.23203,-0.078972,0.0741,0.20158,0.22712,-0.25753,0.20159,0.20154,-0.18105,0.099546,0.074051,-0.05347,-0.18097,0.023047,-0.078977,-0.027938,0.12504,-0.028018,-0.1045,0.40565,0.12507,-0.20649,-0.15552,-0.078953,0.17612,-0.05347,-0.053482,0.17603,-0.15553,-0.10449,-0.02798,0.099588,-0.13,-0.15548,0.074051,-0.05347,0.15057,0.074013,0.074038,-0.078996,-0.027944,0.023035,-0.002454,-0.027962,-0.053464,-0.2065,0.12504,0.20156,-0.053519,-0.10446,-0.079008,-0.027969,0.023054,0.048561,-0.027931,-0.027956,-0.078977,0.12502,0.099534,-0.027987,0.023047,0.023041,-0.053433,0.023065,-0.20648,-0.15553,0.35462,0.022986,-0.10452,0.30363,-0.41057,0.048561,0.074075,-0.15551,0.023072,-0.10447,-0.10452,0.53315,0.38013,-0.43609,-0.02798,0.30363,0.048567,0.22712,-0.25754,-0.28303,0.17607,0.17604,0.048536,-0.13002,-0.20652,0.40566,-0.053439,-0.053476,-0.078977,-0.078972,-0.002467,0.22704,-0.02798,-0.002491,-0.027962,0.099564,-0.027931,0.12507,-0.12998,-0.078959,0.15058,0.022992,-0.00251,-0.58915,0.25262,0.7883,-0.35957,-0.10447,-0.20652,-0.15547,0.048531,0.17605,-0.079021,0.048531,0.074062,-0.002448,0.1251,0.074062,-0.002436,-0.002467,-0.13002,0.17607,0.02301,-0.079008,-0.053495,-0.027956,-0.078935,-0.1045,-0.053458,0.27813,-0.15553,0.20155,-0.20655,0.048555,0.17609,-0.15549,-0.053451,-0.027956,-0.10445,0.09957,-0.002467,0.02298,-0.18102,-0.002485,0.1251,-0.18101,0.074075,-0.078966,-0.002448,0.048561,0.12504,0.15054,-0.027993,0.074051,-0.25752,0.12509,-0.10445,0.099552,-0.002454,0.048561,0.074038,-0.13002,-0.053513,0.12507,-0.053495,0.074075,-0.053451,0.074051,-0.053446,0.074062,-0.15548,0.074013,0.12505,0.12507,-0.078984,-0.10448,-0.027974,0.048555,-0.002467,0.023047,0.099546,0.099521,0.074044,0.099564,-0.10449,0.074093,-0.15551,-0.053458,0.15058,-0.02795,-0.13,-0.002503,-0.079002,0.02301,0.023023,0.25261,0.074062,-0.002448,-0.053458,-0.027969,0.023047,0.27806,0.15057,-0.181,-0.20653,-0.02795,-0.05347,0.023041,0.023072,0.074044,0.023047,0.17603,-0.1555,0.048567,-0.079002,-0.053446,0.074057,0.023047,0.074062,0.20161,0.048543,-0.18106,-0.00251,-0.05347,-0.053495,-0.053451,-0.002461,0.048567,0.048567,-0.027969,0.023029,0.12501,-0.20654,0.074051,-0.027969,-0.10449,-0.002436,-0.002454,0.1251,0.20161,-0.1045,0.022992,-0.13004,0.048525,0.32915,-0.053464,-0.18098,0.074087,-0.41055,0.048561,-0.079008,0.20155,-0.00251,0.048561,-0.078996,-0.002436,0.17609,-0.053476,0.12509,0.074062,-0.027962,-0.028029,-0.002479,-0.079021,-0.10446,-0.10448,-0.078941,0.15059,-0.002448,-0.053482,0.15054,0.12501,-0.28306,-0.027956,-0.078977,-0.078966,0.099595,0.048555,-0.10448,-0.10445,0.15058,0.074013,0.0485,-0.25754,0.023035,0.27815,-0.053482,-0.10447,0.023047,-0.181,-0.002479,0.22705,-0.002491,-0.20655,0.1506,0.074062,0.023084,-0.05347,-0.053458,0.1506,-0.10449,0.3546,-0.002516,-0.15553,-0.15553,0.12509,-0.10447,-0.027956,-0.002448,-0.10447,0.15059,0.176,0.12504,-0.053495,0.12505,-0.10449,0.099595,0.074051,-0.053458,-0.002461,-0.18099,0.048506,-0.1045,0.048518,0.30363,-0.053495,-0.078953,-0.027969,-0.053446,-0.002467,-0.1045,0.15051,-0.13003,0.22711,-0.078984,-0.027931,0.074062,-0.002461,-0.002448,-0.10448,-0.027974,-0.028018,0.17606,0.27812,-0.027974,-0.20652,-0.10447,-0.38506,-0.078959,0.17611,0.22709,0.20153,-0.10451,0.048525,-0.078972,-0.02798,0.074093,-0.002467,-0.053433,0.023059,-0.15551,0.15052,0.048543,0.30359,-0.13,-0.10447,-0.12998,-0.10447,-0.1045,0.15059,-0.027969,0.12504,-0.33407,-0.002479,-0.078996,0.04858,0.2271,0.22713,0.12507,-0.25751,0.074051,0.023035,-0.028018,-0.1555,-0.028005,-0.078959,-0.002454,0.17611,0.17607,-0.15548,0.2526,-0.079045,0.048518,-0.078996,0.023047,-0.053451,-0.053439,0.12506,-0.18098,-0.002472,0.2271,0.25257,-0.13005,0.023041,0.023041,-0.053488,-0.15548,-0.002443,-0.078959,-0.053451,-0.078996,0.12502,0.27808,-0.10452,-0.12998,-0.002454,0.099577,-0.053451,-0.002461,0.074106,-0.027974,-0.00251,-0.028018,-0.002485,-0.002479,-0.12999,0.25261,0.099601,-0.12999,-0.027956,-0.002472,0.17605,-0.18102,0.074038,-0.053488,0.15058,0.17607,0.074093,-0.12999,-0.078947,-0.079008,-0.15553,0.20155,0.30363,-0.13001,-0.10449,-0.23202,0.12508,0.099595,-0.15549,0.30361,0.38011,-0.33409,-0.078996,-0.027974,-0.1045,-0.002443,0.023059,0.048555,0.023059,0.023023,0.15056,0.099515,-0.002467,-0.027969,-0.027969,0.023054,-0.027969,0.074038,-0.002436,-0.12998,0.048543,-0.079002,0.30358,-0.07899,-0.10447,-0.181,-0.078972,0.09957,0.20157,0.048543,0.099515,-0.027987,0.12504,-0.078959,0.048536,-0.002436,-0.15548,0.099588,0.023041,-0.10449,0.17604,-0.10451,-0.10451,-0.078972,0.074062,-0.053446,-0.078996,-0.027944,0.27812,-0.002503,0.20156,-0.079014,-0.053482,-0.1045,-0.30855,0.099588,0.30363,-0.181,0.048567,-0.18101,0.17604,-0.053537,-0.078977,0.048549,-0.053451,0.3291,-0.002454,-0.027938,-0.053464,-0.10447,0.099503,-0.027993,0.07402,-0.10449,0.15057,0.074087,-0.12998,-0.12997,-0.002454,0.15057,0.15052,-0.23205,-0.07899,0.074051,0.1506,-0.07899,0.074069,-0.10447,-0.002436,0.048518,-0.053513,-0.079039,0.53318,-0.027998,-0.053464,0.074106,0.023072,-0.28303,-0.078959,-0.10453,0.15055,0.074013,0.023035,0.20159,-0.053458,-0.05347,-0.027956,-0.002461,-0.053451,0.15059,0.0485,-0.078996,0.048512,-0.05347,-0.078984,0.17611,-0.078972,0.023054,0.023054,-0.02798,0.099521,-0.10452,0.048543,-0.002485,-0.078966,0.17609,-0.053446,-0.12999,-0.002443,-0.002467,-0.053531,0.48214,-0.053488,-0.05347,-0.13001,-0.15548,-0.002448,-0.078959,-0.18097,-0.1045,0.3546,0.25259,-0.28306,-0.10449,-0.12998,0.023047,0.048585,0.2016,0.074075,-0.13001,0.023005,-0.13004,0.048525,0.023041,-0.078977,0.12511,-0.078977,0.048567,-0.002443,0.074038,-0.027987,-0.028005,-0.05347,0.023017,0.048555,-0.1555,0.20161,0.048585,0.12509,-0.10453,0.12502,-0.15553,-0.079021,-0.027962,-0.12999,-0.027938,-0.027962,0.023078,-0.027956,-0.002448,0.099497,-0.053495,0.048531,0.023054,0.074057,0.048561,-0.002454,-0.053458,-0.10447,-0.027974,-0.002503,0.074026,-0.15551,-0.10449,0.35464,0.1761,-0.181,-0.15549,-0.12999,-0.027974,0.12502,-0.07899,0.048518,-0.053458,-0.027956,-0.027944,0.15059,-0.05347,-0.12998,-0.1555,0.17606,0.17604,-0.15553,-0.053476,0.15056,-0.027944,-0.053476,-0.15545,-0.053464,0.023029,0.20153,-0.002485,0.023035,0.023041,-0.027969,-0.027944,-0.002443,-0.027969,-0.027944,0.074033,0.074038,-0.053519,-0.027962,0.023017,-0.10446,0.048555,-0.10446,-0.053476,0.023065,-0.002497,0.20155,-0.10452,0.048555,-0.053476,-0.053458,-0.10447,0.048573,-0.078966,-0.05347,-0.002485,0.15055,0.074002,-0.078972,-0.053482,0.023059,-0.05347,-0.002461,0.1506,-0.078972,-0.053476,0.3801,-0.18105,-0.078996,-0.05347,-0.10447,-0.12995,-0.002467,0.099577,-0.05347,0.15057,-0.028005,0.074013,0.12506,0.048525,-0.12997,-0.10448,0.023084,0.15058,0.12508,-0.13002,0.17604,-0.18104,0.17608,-0.053464,-0.078984,-0.2575,-0.12998,-0.053451,0.27815,-0.1045,-0.028011,-0.053513,-0.002485,-0.053476,0.023035,-0.053446,0.15059,0.25263,-0.18099,-0.002461,-0.028018,-0.079002,-0.027998,0.048549,-0.053482,-0.00243,-0.027969,-0.002436,0.074044,0.023035,-0.0535,-0.053495,-0.027962,0.023041,-0.07899,0.1761,0.023035,-0.078947,-0.07899,0.12506,0.15053,-0.15553,-0.002436,-0.002485,0.074069,-0.078984,-0.078972,-0.002443,0.099564,-0.027956,0.022986,-0.0535,0.023035,0.074051,-0.053458,-0.027969,0.04858,-0.1555,0.12507,0.17608,0.074002,-0.23202,-0.20653,-0.002479,-0.027969,0.20159,-0.053439,0.023047,0.048561,0.15056,0.074013,-0.002491,-0.078984,-0.07899,0.048561,-0.053464,-0.027956,-0.027969,0.023072,-0.027993,-0.002479,-0.028005,-0.05347,-0.02798,-0.027969,-0.053458,0.048561,-0.181,0.1761,0.22715,-0.18104,-0.002497,-0.002485,0.048506,0.048561,-0.002472,-0.181,-0.053439,0.048555,-0.15549,0.099515,-0.23203,-0.078996,-0.053476,0.17609,0.2526,-0.053451,0.023054,-0.13,-0.05347,0.022998,-0.002485,-0.027969,-0.002479,0.048567,0.023029,0.074062,0.099577,-0.10446,-0.027969,-0.002516,-0.18101,-0.10451,-0.18101,0.25262,0.2271,-0.053451,-0.053458,-0.053439,0.023017,-0.027998,0.074002,0.048531,0.15054,0.074057,0.074062,-0.078959,-0.002423,0.048555,-0.078966,-0.002497,-0.13003,0.048549,-0.027974,-0.027944,0.074044,0.023054,-0.002461,-0.002467,-0.002443,0.074013,-0.079021,-0.13001,-0.1045,0.35463,-0.027956,-0.078966,-0.12998,-0.078972,-0.002472,0.074026,-0.053513,-0.181,0.099552,-0.002443,-0.053488,0.25264,0.048555,-0.10446,0.099534,-0.027998,-0.053519,-0.02795,-0.002467,0.048567,0.023035,0.023072,0.023035,-0.078959,-0.027962,-0.053513,-0.053506,-0.027993,0.023047,0.074051,-0.027931,-0.078977,0.023059,-0.078977,-0.027969,-0.079002,-0.002503,-0.027974,-0.078996,0.048567,0.023041,-0.12996,-0.002479,0.023078,-0.027969,0.25258,-0.25757,-0.13002,-0.027969,-0.053476,-0.027969,0.12512,0.048573,-0.002461,-0.078966,0.048525,0.073989,0.023029,-0.027969,0.048561,0.023078,-0.002461,-0.027962,-0.027956,-0.053488,0.09954,-0.13003,0.023029,-0.002461,-0.05347,-0.002443,-0.002454,0.023035,0.023054,0.048561,-0.079026,-0.0535,0.048531,-0.07899,0.074075,0.048549,-0.181,0.15059,0.15058,-0.18101,-0.053513,-0.079021,-0.02795,-0.15551,0.023054,0.17611,0.074069,-0.12998,-0.078984,-0.078966,0.099485,0.023023,0.074044,0.023054,0.023072,-0.15548,-0.027956,0.023059,0.023047,-0.027969,-0.027993,-0.18105,-0.078977,0.074038,-0.027969,0.074069,-0.078972,-0.078959,0.09957,-0.078984,-0.02798,-0.053513,0.023029,0.25261,-0.053495,-0.027938,0.023035,-0.02795,0.048573,0.023029,-0.027993,-0.028018,0.048536,-0.027969,-0.027969,0.023065,0.074069,-0.027962,-0.053458,-0.05347,-0.13002,0.074013,0.023054,0.074026,0.023059,-0.002467,-0.053439,-0.002472,0.023072,-0.002485,-0.028005,-0.079021,-0.002467,0.023054,-0.053476,0.074062,-0.05347,0.27814,-0.053476,-0.078972,0.048506,-0.079002,-0.027993,0.023054,0.048531,0.099577,-0.10447,-0.078959,0.023047,-0.053458,0.02301,-0.053506,-0.078996,-0.027962,0.12507,-0.002454,0.074075,-0.12998,0.023072,-0.13002,0.048525,0.30358,0.023029,-0.10449,-0.181,-0.027974,-0.053458,-0.10447,-0.078959,-0.053482,0.20157,-0.10453,-0.027974,0.023023,-0.078959,0.023047,-0.02795,0.048561,-0.002448,0.023054,-0.002516,-0.002479,-0.02798,-0.10447,0.048549,-0.10446,-0.002443,0.023054,0.048555,-0.027974,-0.027993,-0.15554,-0.078984,-0.002454,-0.002448,-0.027969,0.048561,-0.002448,-0.002448,-0.027974,0.048518,-0.002491,0.074038,-0.053488,0.048549,-0.078972,-0.002436,-0.002443,-0.12996,-0.15553,0.048536,0.17605,-0.07899,-0.002485,0.023047,-0.002461,-0.027938,-0.002467,0.023084,0.023029,0.048518,0.022986,0.023047,0.023023,-0.12998,0.074057,-0.053446,0.023041,-0.053446,0.048536,-0.027993,-0.10453,-0.12999,-0.02798,-0.002443,0.023035,0.023072,0.023035,0.074057,-0.002467,-0.10451,-0.13002,-0.027956,0.074026,-0.10447,-0.002454,-0.002423,0.023047,-0.027925,-0.13,0.07402,0.099521,-0.053488,0.048531,-0.18098,0.023035,-0.053446,-0.027969,-0.078953,0.099552,0.02301,0.12504,0.048531,0.023047,-0.15549,-0.02795,0.074038,0.048555,-0.00243,0.048531,-0.002497,-0.078996,-0.027974,-0.078984,-0.10447,-0.002454,-0.05347,-0.053458,-0.078953,-0.027969,-0.15554,-0.002485,0.099559,-0.053482,-0.078966,0.023054,-0.05347,-0.078959,-0.053464,-0.027969,-0.002479,-0.079021,0.074057,-0.027974,0.023035,-0.053451,-0.10446,-0.002461,-0.002443,-0.002479,0.023005,-0.002491,0.048518,0.074062,0.048549,-0.027944,-0.027944,-0.078966,-0.078953,0.023029,-0.00251,-0.002491,0.048536,-0.027962,0.048543,-0.10447,0.048536,-0.002436,-0.027956,-0.027969,-0.002485,0.099534,-0.053476,-0.0535,-0.027956,-0.02798,0.023054,-0.027956,0.048561,-0.027969,-0.027987,-0.10453,0.023023,0.12508,-0.078996,-0.002443,-0.002461,0.023065,-0.078959,-0.053464,-0.027998,-0.002503,0.09954,-0.002472,-0.078972,-0.002467,-0.002423,0.048549,-0.053446,-0.002461,-0.1045,-0.079026,-0.078984,0.099546,-0.053458,0.15056,-0.078953,0.048549,-0.078953,-0.027969,-0.027998,0.048531,-0.027993,0.048549,0.17611,-0.053476,-0.027944,-0.002461,-0.053464,-0.002443,-0.027993,-0.053525,-0.002485,0.023047,0.074051,0.048555,-0.002436,-0.053464,-0.027944,0.099564,0.074002,-0.13003,-0.002461,-0.053482,-0.002467,-0.078966,0.023072,0.048536,-0.13,0.09957,0.12505,-0.13004,-0.053495,-0.05347,0.074062,0.12507,-0.078959,-0.15547,-0.078953,0.074038,-0.079021,0.12504,0.048561,0.023041,0.099546,-0.10449,-0.053451,-0.002436,-0.02795,-0.02798,-0.10451,-0.053495,0.048531,-0.13,-0.02795,0.17608,0.074057,0.048567,-0.078947,-0.002472,-0.002479,0.022992,0.074044,0.023041,-0.002467,-0.002448,-0.027969,0.074087,0.099564,-0.10447,-0.079008,-0.23205,0.023041,0.074038,-0.078972,0.17609,0.074081,-0.078966,-0.027969,-0.027969,-0.079021,0.25256,-0.027974,-0.10449,-0.053464,-0.12999,-0.078947,-0.027969,0.04858,-0.053476,0.07402,-0.13,-0.079002,0.023047,-0.053482,-0.053464,-0.00243,-0.05347,0.048555,-0.078972,-0.053519,0.074026,0.074038,-0.002472,0.023047,-0.10447,-0.002461,0.023059,0.074069,0.074051,0.023023,-0.10452,-0.053476,-0.002461,0.074069,-0.027962,-0.00243,-0.027974,0.023072,-0.027969,-0.002491,0.048518,-0.027987,0.074062,-0.002454,-0.027969,-0.027938,-0.002467,0.023059,-0.027962,-0.028018,-0.13002,0.023023,-0.078977,0.048561,-0.053476,-0.053439,0.048555,-0.10447,-0.078959,0.15054,0.023005,0.074026,-0.05347,-0.027956,-0.12999,-0.10446,-0.02795,-0.02795,-0.002448,0.099521,-0.028018,0.048518,0.074057,-0.027969,-0.15549,0.17611,0.048561,-0.027956,-0.027969,0.02301,-0.10452,0.074038,-0.10449,0.074069,-0.078972,0.023072,-0.002454,-0.027944,0.074051,-0.053495,-0.002491,-0.1045,0.074044,-0.053476,-0.053458,-0.002448,-0.027974,0.048561,0.074069,0.048506,0.02301,0.099559,-0.002472,-0.078972,0.074069,-0.05347,0.09957,0.023047,-0.12998,-0.027998,-0.079021,-0.053476,-0.002472,0.023047,0.074062,0.023047,0.048567,0.023047,-0.1555,-0.07899,0.17605,-0.027974,-0.002472,-0.15549,0.023054,0.048555,0.074069,-0.002443,0.048531,-0.002479,-0.10454,-0.07899,-0.078977,0.048567,0.048561,0.048536,-0.12996,-0.02795,-0.027962,-0.002467,0.048506,-0.078972,0.12507,-0.002467,-0.053464,-0.002454,0.023035,0.023072,-0.10449,-0.15551,0.023029,0.074038,-0.12998,-0.05347,-0.027974,0.023054,0.048567,-0.002467,0.023059,-0.002503,0.074033,-0.002491,0.048536,-0.027962,-0.078972,-0.002436,0.023047,-0.053439,-0.1045,0.048518,0.023017,0.023029,-0.10449,-0.078996,-0.027944,-0.002461,-0.00243,0.023047,-0.12997,0.099534,-0.00251,-0.053476,0.099564,-0.078984,-0.053451,-0.02795,-0.078977,0.099583,0.12505,-0.027987,0.048512,-0.002491,-0.002467,-0.053464,0.074057,0.023072,-0.027969,-0.18098,-0.002461,0.023017,0.022998,-0.053495,0.30363,-0.027974,0.023054,-0.027969,-0.027962,0.048561,-0.002467,0.023035,-0.053525,0.023035,-0.027956,-0.053464,-0.053458,-0.002467,0.023065,0.074051,-0.002454,-0.002485,-0.053525,0.048543,-0.002479,-0.05347,-0.053464,-0.027956,0.048573,-0.10449,-0.002461,0.12505,-0.028011,-0.002472,-0.027993,-0.002448,-0.027956,0.048567,0.074069,-0.078977,-0.053464,0.023023,0.023005,0.074026,0.02301,-0.053458,-0.027956,-0.027938,0.099583,-0.078972,-0.10447,-0.10452,0.25257,-0.07899,-0.053476,-0.10447,0.048536,0.04858,0.023047,-0.027956,-0.002467,-0.027998,0.07402,-0.002485,-0.02795,0.074051,-0.027944,0.048573,-0.05347,-0.053451,0.048543,-0.053495,-0.15554,-0.002485,0.074038,0.099559,0.04858,-0.002461,-0.002436,-0.027974,-0.053451,-0.002485,-0.053513,-0.053488,0.074051,0.048561,-0.027962,0.12508,-0.10449,-0.002436,0.099552,-0.079008,-0.028005,-0.02798,-0.002467,-0.12999,-0.12998,0.17609,0.023059,-0.05347,-0.078966,0.023005,-0.10452,0.074026,0.048543,0.099552,-0.10447,0.023072,0.074044,-0.078966,0.074075,0.048525,-0.18104,-0.1045,-0.10448,0.074062,0.023035,-0.002436,0.12506,-0.078972,-0.053451,-0.028011,0.15053,0.023035,-0.05347,0.048561,0.023041,0.048555,-0.002454,-0.12998,-0.12998,-0.002491,0.074026,0.099546,0.074033,-0.027974,0.074062,-0.053464,-0.10446,-0.027956,-0.053482,-0.027993,0.12503,0.048536,-0.053482,-0.078966,0.074038,-0.078972,-0.027969,-0.027969,-0.002454,-0.002479,0.048487,-0.053495,-0.002448,-0.027956,0.074044,0.048561,-0.002423,-0.10446,-0.002472,-0.079002,0.12502,0.099534,-0.053488,-0.053464,0.023047,-0.078966,0.074075,-0.027962,-0.053464,0.023023,0.048506,-0.002467,0.048518,0.048561,0.12509,-0.053476,-0.053451,0.023041,-0.027956,-0.05347,-0.053519,-0.027974,0.048543,0.023047,-0.053439,0.048555,0.048555,-0.027962,0.023035,-0.10449,-0.028005,-0.079002,0.023054,-0.002472,0.023065,0.023059,-0.078972,0.04858,0.048549,-0.053488,0.073989,0.048536,0.023023,-0.10447,-0.002461,0.048561,0.023047,-0.002448,-0.002436,-0.002503,-0.002491,-0.002472,0.023029,-0.027962,0.074062,0.074087,-0.002467,-0.027938,-0.053482,-0.027969,-0.028011,-0.028005,-0.078972,0.09957,-0.053476,0.048573,-0.027974,-0.002454,0.023047,-0.027993,-0.027993,-0.10451,-0.053476,0.099583,0.023047,-0.002448,0.048555,-0.053464,0.023047,0.099521,-0.028011,-0.053476,0.023041,-0.027969,-0.027956,-0.027944,0.023035,0.09957,0.023035,-0.10452,-0.15551,0.023023,-0.05347,0.023035,-0.078966,0.15059,0.099546,-0.002443,-0.002443,-0.13001,0.02301,0.12504,-0.053464,0.023047,-0.053476,0.023059,-0.078984,-0.002436,0.099552,-0.053482,-0.028018,-0.1045,0.17609,-0.002461,-0.078959,-0.002454,0.023059,-0.027956,-0.027974,0.048543,-0.053525,-0.078984,-0.002461,0.048536,0.09957,-0.027938,0.048549,-0.078959,0.074062,0.048518,-0.028018,0.048543,-0.02798,-0.10447,0.023059,0.074062,-0.027956,-0.002423,-0.002454,-0.002503,-0.0535,0.048543,0.099552,-0.027969,0.023065,-0.002448,-0.15549,-0.078953,0.12507,-0.027993,-0.053513,-0.10449,-0.027969,0.074038,0.17612,0.074069,-0.053482,0.048561,0.048573,-0.002485,-0.053495,-0.053506,-0.002472,0.074044,0.074051,-0.053433,-0.027969,-0.027931,-0.002467,0.023035,0.048506,-0.079002,0.12508,-0.053482,-0.002454,0.074062,-0.05347,-0.078947,0.048543,-0.053495,-0.027993,-0.027993,0.023047,-0.002461,-0.078984,0.074081,-0.027962,-0.027938,0.023047,-0.027987,-0.053519,-0.002485,0.2016,-0.12999,0.023059,0.023054,-0.027969,0.023059,-0.10448,0.023017,0.074013,0.074013,0.048549,-0.027962,-0.053482,-0.002423,0.048555,0.074051,0.023035,0.09954,-0.027987,0.02301,-0.002467,-0.027969,-0.053464,-0.10444,-0.027969,0.048573,-0.002472,-0.027987,-0.002497,0.048512,0.048555,0.023017,-0.027962,0.1506,-0.05347,-0.078947,0.023035,-0.079008,0.023029,0.074038,-0.053482,0.12507,-0.002479,0.04858,0.048555,0.048549,0.023072,0.023023,-0.053513,-0.053458,-0.02798,-0.027969,-0.002454,-0.002467,-0.02795,-0.02795,0.048549,0.023029,0.17601,-0.078972,0.048536,-0.10447,-0.027956,-0.078972,0.15059,-0.053458,-0.02795,0.074013,-0.027998,-0.027993,-0.10451,-0.078966,0.22711,-0.10447,-0.078959,0.023047,-0.12999,-0.027987,0.099497,-0.027974,0.099546,0.023054,-0.002443,0.074051,0.074069,0.023047,-0.10446,-0.02798
0.023023,-0.10452,0.074033,-0.002467,-0.12999,0.15058,-0.053451,-0.027956,0.099583,-0.15549,-0.027974,-0.053488,0.074033,0.12507,-0.002454,0.023047,0.09957,-0.10447,0.023054,0.074062,-0.2065,-0.079021,0.15056,-0.027962,0.12505,-0.002436,-0.053464,-0.053458,-0.02795,-0.053476,-0.10449,-0.053495,0.12502,0.099559,-0.002461,0.023047,-0.027938,-0.078959,0.12506,-0.053451,-0.13,-0.13004,0.074038,-0.027969,0.048531,-0.002461,0.099588,-0.05347,0.023054,-0.10446,-0.23201,-0.079021,0.25257,0.023035,-0.027974,0.099552,-0.027962,0.023047,0.12507,-0.15548,-0.1045,-0.10452,0.099534,0.20157,-0.053464,0.20159,-0.053446,-0.027962,-0.002448,-0.15549,-0.053482,-0.15552,0.25257,-0.05347,-0.002479,0.074062,-0.002454,0.048561,-0.10447,-0.078966,-0.078977,-0.23205,0.023017,0.074038,0.048555,-0.02795,-0.027962,-0.002454,-0.10446,-0.12999,-0.15552,0.12504,0.048531,0.074026,0.048543,-0.053458,-0.027969,-0.078966,0.023065,-0.053464,-0.15552,-0.0535,0.074033,0.048531,0.023054,0.023047,-0.002461,0.099559,-0.078953,-0.12998,-0.027974,-0.1045,0.048518,0.12504,0.074057,-0.078959,-0.05347,0.12507,-0.053451,-0.10447,0.023023,-0.18103,-0.027993,0.17607,0.048549,-0.078972,0.12507,0.074069,-0.10446,-0.10447,-0.002479,-0.1045,0.048518,0.12504,0.17607,-0.02795,-0.05347,0.099559,0.074069,-0.15548,-0.25753,-0.053506,0.20156,-0.078977,0.023035,0.074057,0.04858,-0.05347,-0.002454,-0.053464,-0.23203,-0.027998,0.09954,-0.02798,0.12504,0.15057,-0.078966,0.048555,0.048573,-0.232,-0.078996,-0.053506,-0.002479,0.048525,-0.027962,-0.002443,-0.078972,-0.027962,0.074075,-0.18099,-0.027987,-0.002497,-0.002491,0.074051,0.09957,-0.053451,-0.053464,-0.002461,-0.002443,-0.15549,-0.15552,-0.053513,0.09954,-0.002454,-0.002467,0.12506,0.074081,-0.078959,0.023059,-0.027987,-0.13001,-0.1045,0.12504,0.074033,0.12507,-0.027969,0.023059,-0.10446,0.048555,0.023059,-0.15551,-0.13002,-0.053488,0.023035,0.099564,-0.027969,0.12507,-0.078959,0.099564,0.023059,-0.18101,0.022998,0.074038,0.12504,0.099564,-0.002472,0.074069,-0.10447,0.023047,-0.002461,-0.20652,0.099515,-0.02798,0.023041,0.09957,-0.02795,0.023059,-0.027956,-0.027962,0.15057,-0.20651,0.074013,0.099546,-0.02798,0.048555,-0.053476,0.048567,-0.12996,0.048555,-0.12997,-0.10451,-0.002491,0.074026,0.12504,0.099559,-0.027969,0.048561,-0.078953,0.074051,-0.078966,-0.13,-0.0535,0.099534,0.12505,-0.15549,0.048549,0.023059,-0.12998,0.17608,-0.05347,-0.18102,0.099521,-0.002479,0.048543,0.074069,-0.078972,0.15057,0.074075,-0.10448,-0.05347,-0.027969,-0.13,0.099534,0.074051,-0.053464,0.023041,0.12507,-0.12996,-0.027969,-0.078966,-0.1555,-0.10454,0.074026,-0.053464,-0.027974,0.023054,-0.027944,-0.078977,0.074057,-0.10447,-0.20652,0.074026,0.15054,0.048536,0.099546,-0.027956,-0.10447,-0.002461,0.074062,-0.078972,-0.1045,-0.028005,0.048518,0.15056,0.023054,-0.027956,0.15058,-0.15548,0.023054,-0.10447,-0.23202,0.023005,0.074038,-0.053488,-0.002454,-0.078959,-0.027962,0.074069,-0.078953,-0.002461,-0.053482,-0.10452,0.048518,-0.05347,0.023041,0.09957,-0.027944,-0.078977,0.023059,-0.15549,-0.07899,0.023005,-0.002491,0.09954,0.048549,0.074044,0.048561,-0.002448,-0.002467,-0.053464,-0.23201,-0.20655,0.12505,-0.053476,0.074044,-0.078959,-0.027969,-0.02795,-0.10447,0.023047,-0.10449,-0.10452,0.20156,-0.053476,0.17606,-0.05347,-0.02795,-0.12996,0.048555,-0.002443,-0.18101,-0.053506,-0.079008,0.17605,-0.053476,0.099564,-0.12997,-0.002454,0.048561,-0.027962,-0.13,-0.13002,0.15054,-0.078977,0.074044,-0.053458,0.12508,-0.053458,-0.002461,-0.15547,-0.078996,-0.18102,0.12503,0.074051,-0.02798,0.12507,-0.05347,0.074069,-0.12997,-0.027969,-0.12999,-0.079002,0.22706,-0.07899,0.099546,0.048549,-0.078972,0.099577,-0.002454,-0.078972,0.048536,-0.18103,0.02301,0.15056,-0.027962,-0.053476,0.099559,-0.002443,-0.078959,-0.12999,-0.078996,0.023017,0.048531,0.048543,0.09954,0.074069,-0.053451,-0.053451,0.20158,-0.027962,-0.28303,-0.053513,0.12504,-0.002467,-0.053482,-0.002461,0.099577,-0.10447,-0.002461,0.074057,-0.28301,-0.15553,0.17604,0.074051,-0.027956,-0.053476,0.22708,-0.02795,-0.078977,0.048555,-0.181,-0.10453,0.099528,-0.15549,0.048543,0.074069,0.048555,0.023047,0.074081,-0.12999,-0.079002,0.023017,0.074033,0.17606,0.048561,-0.10446,-0.027969,0.12507,-0.002436,-0.181,-0.12999,-0.078996,-0.002497,0.15054,0.048536,-0.027969,0.09957,0.023078,-0.053464,-0.078977,-0.12999,-0.079002,0.17604,0.20158,-0.002461,0.048543,0.023072,-0.10447,-0.027974,0.023059,-0.05347,-0.13004,-0.079014,-0.078972,0.048543,0.048549,-0.02795,-0.181,0.15057,0.074087,-0.10447,-0.15551,0.17604,0.17606,0.023035,-0.002461,-0.02795,-0.078947,0.099564,0.0977,-0.12999,-0.02798,-0.027993,-0.027998,0.048543,0.074044,0.048531,-0.002443,-0.053439,-0.002448,-0.027962,-0.002479,0.048512,0.048518,0.099552,-0.12998,-0.027974,0.20162,0.15062,-0.078972,-0.1045,-0.078996,-0.13004,-0.053495,-0.027956,-0.10449,0.023047,-0.078947,-0.027962,0.048567,0.09957,0.15052,-0.10452,0.023035,-0.07899,0.099564,-0.027962,-0.15546,0.099559,-0.053451,0.023041,-0.10449,0.048494,-0.078996,0.074038,-0.10447,0.074057,-0.053451,0.074062,-0.053464,0.048567,-0.10452,0.048518,0.099528,-0.05347,0.099552,-0.10447,-0.027938,0.023047,-0.078953,-0.1045,0.099546,0.20156,-0.053506,-0.002461,-0.078972,0.023047,0.023072,-0.027956,-0.18097,-0.002436,0.048512,0.022986,-0.002485,0.15057,0.048543,0.09957,0.023047,-0.15549,0.074069,0.048543,-0.079008,-0.20652,-0.053482,-0.10452,0.048543,0.099583,0.15059,-0.15549,-0.053458,-0.12999,-0.002467,0.20152,-0.53813,-0.053464,0.81378,0.20159,-0.33402,-0.15549,-0.20653,-0.1555,0.023054,0.048525,0.048512,0.099559,0.09954,-0.027962,0.023065,0.023054,0.15062,0.048536,-0.02798,-0.15554,0.074038,0.09957,-0.33405,-0.078984,0.15062,0.15057,-0.10449,-0.51259,0.12507,0.27814,-0.18105,-0.002491,-0.027974,-0.12999,0.023084,-0.053488,0.22714,0.048536,-0.35961,-0.079021,0.48216,0.099577,-0.13001,-0.10448,-0.002436,0.074062,-0.12996,0.12505,-0.13002,0.074044,-0.13002,-0.20652,-0.02795,-0.027956,0.12507,-0.15548,0.20159,-0.078984,0.023029,-0.13004,0.099552,0.27811,0.17607,-0.23203,0.099564,0.22712,-0.078941,-0.15548,-0.10453,-0.20655,0.074013,0.023029,-0.23201,-0.002461,0.50772,0.09957,-0.181,-0.18099,-0.028005,-0.002497,0.074038,-0.1045,0.023059,0.023041,0.023047,-0.027938,0.048549,-0.10447,0.048536,-0.079021,-0.053482,0.023029,0.12509,0.048531,0.048555,0.32914,-0.12998,-0.078959,-0.028005,-0.053513,-0.002467,0.074038,0.15057,0.17609,-0.027969,-0.18099,0.1506,0.12506,-0.15552,0.12504,0.074033,-0.38507,0.32912,0.45669,-0.078966,-0.18101,-0.25749,-0.20651,0.048531,0.074033,-0.10452,0.09957,0.099559,0.12507,0.023059,-0.027944,-0.002443,0.048549,-0.002491,-0.00251,-0.1045,0.048561,0.048555,-0.12999,-0.027944,0.023041,-0.10447,-0.05347,-0.10449,-0.079021,0.048549,0.12504,-0.027962,0.048555,0.023078,0.023047,-0.12998,0.048543,-0.002485,-0.15554,0.048543,0.38016,-0.18103,-0.078972,-0.15549,0.048561,0.17614,-0.002479,-0.20654,-0.13005,0.048549,0.27812,0.17609,-0.10449,-0.2065,0.099577,-0.078972,-0.15548,-0.027998,-0.002485,0.048518,-0.12998,0.048536,-0.002436,0.27812,-0.002454,-0.05347,-0.10447,0.099534,-0.028018,0.023041,-0.027987,-0.027962,0.20163,0.023041,-0.12997,-0.07899,0.04858,-0.13002,-0.053506,0.023029,-0.13,0.023047,-0.15549,0.048604,0.20159,-0.027944,-0.15553,-0.027987,0.099515,0.074057,0.023047,-0.1555,0.20161,-0.02795,-0.18098,0.099595,0.023041,-0.079021,-0.25758,0.099552,0.2271,-0.027987,-0.027962,0.023072,-0.12998,0.023078,-0.078972,0.09954,0.022986,0.074051,0.023017,-0.12999,0.074057,0.048592,0.12505,-0.10447,-0.002472,-0.07899,-0.23204,-0.078996,0.099546,-0.05347,0.074062,0.048561,-0.053482,-0.078966,0.023072,0.15057,-0.20656,-0.053513,-0.027956,-0.053495,0.074062,0.04858,-0.027962,-0.027956,-0.002448,-0.002503,0.048531,-0.053488,-0.10448,0.099552,-0.35954,0.12508,0.38019,-0.25756,0.27815,-0.002491,-0.13002,-0.23205,0.023023,-0.15548,0.099559,0.048573,0.074062,-0.02795,0.2271,-0.078984,-0.053506,-0.2065,-0.002467,-0.027962,-0.027969,-0.18098,0.09957,-0.02795,0.099577,-0.13002,-0.053519,-0.079002,-0.07899,0.023035,0.048561,0.048573,0.048567,-0.053451,0.074057,-0.13002,-0.053513,-0.053476,0.099546,-0.181,0.15059,0.048598,0.12508,-0.053476,-0.053476,-0.079002,-0.13,-0.027993,-0.15548,0.074026,0.048567,0.074051,0.074075,-0.053464,0.12509,-0.002461,-0.053525,0.023017,-0.002467,-0.1045,-0.027931,0.074069,-0.053464,0.023047,0.048536,-0.10449,0.022992,-0.027974,0.12506,-0.18099,-0.002454,-0.20652,0.17611,0.50768,-0.15548,-0.027993,-0.10453,-0.28307,0.023035,0.30362,-0.078972,-0.027944,-0.1555,0.35465,-0.002467,-0.07899,-0.028011,0.023047,0.074057,0.023029,-0.15551,0.023054,0.43117,-0.12998,-0.053451,0.07402,-0.13003,-0.053482,-0.13001,-0.078959,0.32912,-0.10449,0.099564,0.023047,-0.10448,0.25259,-0.46165,0.2271,0.63524,-0.23202,-0.079002,-0.283,0.048543,0.099577,-0.05347,0.12504,0.073995,0.048561,0.074033,-0.12997,0.023047,-0.00243,-0.002472,-0.027944,0.074044,-0.181,-0.028018,0.22707,0.048543,-0.05347,-0.078966,-0.002448,-0.027944,0.023035,-0.002443,-0.002503,0.15054,-0.23202,-0.30855,0.43115,0.1251,0.25262,-0.181,-0.002467,-0.30854,0.17604,0.099528,-0.02798,-0.18101,-0.053458,-0.18101,-0.002436,0.30364,-0.053464,0.1251,-0.053495,0.074013,-0.079045,-0.002454,0.35462,-0.10448,-0.053464,-0.078959,-0.13001,-0.12998,0.099528,0.12504,-0.07899,0.048549,-0.002461,0.048536,0.12512,-0.078984,-0.00243,0.099588,-0.15551,0.048482,-0.07899,-0.20653,0.074062,0.22711,-0.078966,-0.027944,-0.002461,0.048555,-0.1045,0.12501,0.023047,0.074044,-0.15548,0.074051,-0.002423,0.023041,-0.078953,0.023047,-0.10452,0.22706,0.023041,-0.078977,-0.25756,0.2526,0.30364,-0.12998,-0.30855,-0.002454,0.22707,0.17604,-0.079002,-0.078972,0.023035,-0.078984,0.048567,0.048549,0.15059,0.15057,-0.20652,0.099528,0.15057,-0.181,0.048531,-0.053451,-0.078972,-0.027944,-0.078984,-0.10449,0.20159,-0.053525,-0.053488,0.17609,-0.053482,-0.002472,-0.002454,0.074062,0.25264,-0.13001,-0.41057,0.02298,0.22711,0.22708,-0.10449,-0.002467,-0.002436,-0.078984,-0.07899,0.12505,-0.078977,0.09954,-0.10448,0.048525,-0.002443,-0.027969,0.12507,-0.002448,0.048555,-0.10449,0.17608,0.099521,-0.28303,0.12507,-0.002472,-0.078972,-0.12998,-0.10448,-0.078959,0.048531,-0.002485,-0.027993,0.17607,0.048543,0.048531,-0.027987,-0.10446,-0.002467,-0.078941,-0.12999,-0.12998,0.073989,-0.002491,0.17609,-0.027974,0.09957,0.1506,0.099552,0.099588,-0.002448,-0.079008,0.022986,-0.15553,-0.002461,-0.002454,-0.078972,-0.12998,0.17612,-0.10447,-0.2575,-0.053488,0.25255,-0.053495,0.022998,0.074069,0.20159,-0.15545,-0.10449,-0.027969,0.023072,-0.15552,-0.028011,0.12507,0.074038,-0.002454,0.048573,0.074057,-0.10447,-0.002461,-0.053464,0.048561,0.022992,-0.18102,0.12505,-0.002461,0.023059,0.048567,-0.078984,-0.12998,0.12506,0.25257,-0.15551,-0.078984,-0.027969,-0.002467,-0.10451,-0.078935,0.17611,-0.07899,-0.02795,-0.028005,0.15054,-0.12999,-0.02798,0.074062,0.023035,-0.027969,-0.12999,0.17611,-0.078972,0.023035,-0.027998,0.048549,-0.027987,-0.002461,-0.053458,-0.002454,-0.002472,0.074062,0.023059,-0.13,-0.027998,0.048531,-0.078984,0.17609,-0.002461,0.12509,0.023017,-0.027938,-0.053464,-0.15554,0.12503,0.074038,-0.10449,0.023084,0.048567,-0.20649,0.048555,0.12506,-0.10447,-0.02798,-0.00251,-0.13002,0.074051,0.22712,-0.07899,0.023065,-0.18099,-0.15546,-0.002461,-0.12999,0.074002,0.048543,0.023023,-0.18099,0.12508,0.074087,-0.027974,0.023072,-0.002467,-0.053482,-0.002516,-0.078984,0.22708,-0.10447,-0.002472,-0.10447,0.023041,-0.002448,-0.002454,-0.002491,0.074026,-0.027993,0.17609,-0.053458,-0.12999,-0.078966,0.074057,-0.002423,-0.002479,0.048543,0.15053,-0.002485,0.023047,0.023035,-0.02795,0.048543,-0.027956,-0.027956,-0.12998,-0.053482,0.023005,-0.13,-0.053458,-0.027974,0.023005,0.45668,-0.027962,-0.23203,-0.05347,-0.07899,0.12502,-0.002491,-0.053476,-0.078972,-0.002461,-0.002448,0.074062,-0.078959,-0.027956,0.20158,0.073984,-0.002472,-0.12998,-0.07899,-0.02795,-0.078959,0.023059,0.048567,-0.027956,0.048531,-0.002497,-0.002491,-0.002479,-0.07899,0.048585,-0.078953,-0.002472,0.12507,-0.13,0.074044,0.35461,-0.1045,-0.12999,-0.002461,-0.078984,-0.15547,0.023041,0.20162,0.15059,-0.028005,-0.002503,-0.027987,-0.15551,-0.10447,0.099546,-0.027962,0.074075,-0.053458,0.074069,-0.002479,-0.079008,-0.027987,-0.078996,-0.053458,-0.053476,-0.027931,-0.027962,-0.002454,-0.053464,0.3036,-0.027998,-0.002503,-0.05347,0.048536,-0.10447,0.048549,-0.027969,0.12508,0.074038,-0.10448,-0.002503,-0.027969,0.074038,-0.027956,0.15057,-0.05347,0.12507,-0.027962,-0.027944,-0.02798,0.048512,-0.13001,-0.027969,-0.002448,-0.078996,0.048561,0.1506,0.048555,-0.053451,-0.30857,-0.00251,0.09957,0.023017,-0.002454,-0.027956,-0.053476,0.17609,0.048573,-0.1045,-0.027974,0.20152,-0.02798,0.023047,-0.027969,0.048573,-0.10447,-0.02795,0.12507,-0.15548,-0.053495,-0.10452,0.048543,-0.027974,-0.078966,0.074051,-0.027944,0.074069,-0.10447,-0.002436,0.074038,0.099515,-0.002485,-0.002467,0.023047,-0.027974,-0.00243,-0.28302,0.048567,0.12509,-0.15549,0.022992,-0.1045,0.048525,-0.10448,0.074069,-0.078972,0.048573,0.5332,-0.2065,-0.13002,0.048506,-0.1045,-0.13,0.099564,-0.002454,-0.15546,-0.002461,-0.027956,-0.002467,0.074069,0.074002,-0.07899,0.048525,-0.10447,-0.027969,-0.078947,0.023054,-0.10447,0.17607,0.27809,0.023005,-0.18101,-0.181,-0.027962,0.15056,0.023072,0.023035,-0.002423,-0.027969,0.048543,0.022986,0.023041,0.023023,-0.053458,-0.10451,0.023072,0.20159,-0.12997,-0.027969,0.09957,-0.10454,-0.15551,-0.13,-0.027956,0.20158,-0.02795,0.15057,0.023059,0.023054,-0.10452,0.099528,0.3036,-0.15548,-0.10448,-0.053464,-0.002454,-0.053476,0.15057,-0.053464,0.15056,0.17602,-0.13,-0.002467,0.023059,0.048549,0.023072,0.048543,-0.15547,0.074062,-0.002485,-0.002485,0.074033,-0.027962,0.048536,-0.027969,0.074087,-0.002454,-0.10445,0.074069,0.099528,0.02301,-0.053495,-0.13001,0.32913,0.17608,-0.18098,-0.002461,-0.20651,-0.2065,0.099528,0.25257,0.099559,0.048536,-0.10447,-0.05347,-0.12998,0.048561,0.074062,-0.10445,-0.07899,0.022998,-0.002479,0.074026,-0.027974,0.048567,-0.027944,0.023035,0.023054,-0.053451,-0.053506,0.074008,0.048531,-0.10447,0.023059,-0.027969,0.12509,0.048561,0.023035,-0.078953,-0.053488,0.074002,-0.078996,0.074062,0.023047,0.023041,-0.00243,-0.002461,-0.002448,0.023047,-0.027987,-0.079008,0.17606,-0.002467,-0.027969,-0.181,0.099601,-0.10449,-0.078972,-0.10447,0.048518,0.0485,-0.002467,0.023041,-0.053451,0.12505,-0.078972,0.12509,0.048543,-0.10447,-0.002491,0.074026,0.023023,0.023041,0.074062,0.048561,-0.027931,-0.12999,-0.053439,-0.002448,-0.0535,0.048512,0.12505,-0.10447,-0.027969,-0.10449,0.023072,-0.07899,0.048567,0.074062,-0.10449,0.023005,0.023029,0.074062,-0.079002,0.099595,0.30365,-0.18099,-0.027969,-0.18098,-0.027987,0.02301,-0.053506,-0.053464,-0.027969,0.074051,0.048573,0.023035,0.048585,0.023035,-0.002461,0.022986,-0.002472,-0.10449,-0.078959,-0.12999,0.074075,0.15059,0.023054,-0.002485,-0.18101,0.048487,-0.027962,-0.10451,0.15058,0.048561,0.023054,-0.002454,0.074087,0.023054,-0.15553,0.022998,-0.02798,0.074069,-0.027969,0.023054,-0.002461,0.023054,-0.053464,-0.053446,0.3291,-0.028005,-0.02798,-0.13,-0.027962,-0.027969,-0.027931,0.048555,-0.078959,0.12507,-0.027974,0.12502,-0.07899,-0.0535,0.074069,0.023059,0.074069,-0.078972,-0.15548,0.023065,-0.027987,0.20155,-0.053495,-0.002479,0.023047,0.048567,-0.078966,0.12507,-0.027969,-0.027956,0.15054,-0.15553,0.023035,-0.078977,0.12507,-0.12998,0.048573,0.023047,-0.027956,0.023035,0.023035,0.074002,-0.02798,0.099528,-0.20649,0.30361,-0.10445,0.023047,-0.15547,-0.002467,-0.002485,0.074008,0.048518,-0.078984,0.074051,0.25263,-0.10449,-0.10447,-0.027962,0.023047,-0.053464,0.099515,-0.002472,0.048525,0.074057,-0.027969,0.074087,-0.02798,-0.078959,0.099552,-0.002472,0.02301,0.023023,-0.027969,-0.10447,-0.002454,0.023047,-0.002448,0.023035,-0.053451,0.15056,0.099546,-0.079021,-0.053476,-0.13001,0.12509,-0.078972,-0.027956,-0.181,0.27811,0.27809,-0.027993,-0.053519,-0.12998,-0.15551,-0.12997,0.023065,-0.078959,0.048549,-0.02795,0.12504,0.17603,-0.027987,-0.078977,-0.05347,-0.02795,-0.053476,-0.027962,0.35468,0.099559,-0.027974,-0.13004,-0.1045,-0.027974,-0.027969,-0.027962,-0.002443,0.023047,0.074062,0.048561,-0.053482,0.22705,-0.13002,-0.027974,-0.053464,-0.027956,0.023047,-0.002436,-0.053476,-0.078953,0.074013,0.074002,0.048525,0.023054,-0.078977,0.048555,0.099577,0.023054,0.048555,-0.10445,-0.027993,0.17604,0.35459,-0.18101,-0.053495,-0.18099,0.1761,-0.10445,-0.05347,-0.10448,-0.02798,0.073977,0.048536,0.074033,-0.002443,-0.078959,-0.053446,-0.027956,-0.02795,0.074069,-0.079002,0.25256,-0.10452,-0.002454,-0.053488,-0.002436,-0.027956,-0.078947,-0.027969,0.048573,0.09951,-0.00251,-0.078984,0.099577,-0.002461,-0.12999,-0.002443,0.023047,0.099588,-0.027974,-0.10448,0.074002,-0.053495,0.048536,0.023029,-0.078959,-0.02795,0.15059,0.20162,-0.053476,-0.10449,-0.079026,0.02301,-0.078966,-0.027987,-0.002454,0.02309,-0.027969,-0.078953,0.023054,-0.028005,0.099515,0.074044,-0.02798,-0.078966,-0.002454,-0.027962,-0.002436,0.048555,-0.18099,0.074051,0.074002,-0.10449,0.074038,-0.027974,-0.027962,-0.078984,-0.15547,0.09957,0.099577,0.099546,0.15051,-0.1555,0.074044,-0.027969,0.1506,0.023054,-0.10449,-0.12998,-0.053476,0.17605,0.023023,0.048549,-0.10449,-0.10447,0.023029,-0.10447,-0.05347,-0.027969,0.023054,0.048543,0.25254,-0.079002,0.074062,0.074051,-0.078972,0.22713,0.099559,-0.02795,-0.027969,0.048536,-0.10453,-0.002491,-0.078953,-0.002461,-0.078977,0.023078,-0.078977,-0.027938,0.048555,0.099528,0.17604,-0.027993,-0.05347,0.023035,0.048561,-0.002461,0.1761,0.12507,-0.10446,0.023035,-0.20655,0.12506,0.074038,-0.15548,-0.027969,0.17612,0.023035,-0.15549,-0.002472,-0.18102,0.099534,0.02301,0.048555,-0.002472,-0.002436,0.023047,0.048549,0.12508,-0.078977,-0.078984,0.023005,-0.12999,-0.027969,0.048531,-0.10445,-0.002467,0.023059,0.074057,0.074069,0.099552,0.074002,0.023029,0.048531,-0.053464,0.074057,-0.10447,-0.002436,-0.13,-0.053458,0.35466,0.073995,-0.15554,-0.078984,0.074013,-0.10447,0.22713,-0.053464,-0.053458,-0.002461,-0.10449,0.20155,-0.079002,-0.002443,-0.002467,-0.002461,-0.027925,0.023054,-0.02795,0.074075,0.07402,0.07402,0.048525,0.023041,-0.027956,-0.078984,-0.002443,-0.02795,0.023035,0.048573,-0.027993,0.20155,-0.0535,0.023029,0.048555,0.099559,-0.10446,0.20163,-0.20649,-0.002454,-0.13001,0.074026,-0.027993,-0.027962,0.048512,-0.027944,-0.002467,-0.078947,-0.078972,0.17611,-0.002479,0.099503,0.023005,-0.002472,-0.002461,-0.002454,0.12507,-0.002461,-0.053451,0.023054,-0.027974,0.099503,-0.078996,0.023017,0.023059,-0.10447,0.048585,-0.053476,-0.002423,0.12508,-0.078984,0.17602,-0.13001,0.023023,-0.10447,0.12505,0.04858,0.023035,0.04858,0.12507,-0.13,0.048494,-0.027993,0.023035,-0.002461,0.048555,0.023047,0.2016,0.048561,-0.078959,-0.18101,-0.002497,-0.00251,0.074051,-0.002485,0.048561,-0.078977,0.099577,0.074075,-0.053458,-0.15551,-0.053513,0.048543,-0.15549,0.09954,-0.078966,0.074075,-0.002443,-0.15548,-0.078959,0.09954,0.0485,-0.0535,0.12505,-0.027969,-0.078959,-0.027944,0.099564,-0.10448,0.04858,-0.079002,-0.028011,0.074026,-0.002448,-0.053488,0.074081,0.023041,-0.027944,-0.20651,0.04858,0.15058,0.17604,-0.15553,-0.10449,0.074033,-0.053458,-0.05347,-0.053458,0.12509,0.074081,0.023041,-0.053544,-0.053506,-0.078984,0.048549,0.023047,0.099577,0.048573,0.048549,-0.10447,-0.053482,0.12504,-0.002479,-0.10449,0.074038,0.17609,-0.10446,-0.05347,-0.078947,-0.002472,0.12507,-0.053531,-0.002485,-0.1045,-0.002461,0.023047,-0.10449,0.15059,0.099601,-0.00243,0.048512,0.073995,-0.0535,-0.10449,-0.02795,-0.10449,0.023084,-0.002461,0.074087,0.12508,-0.027974,0.15051,0.048543,-0.078996,-0.12998,0.023041,-0.053451,-0.002454,-0.05347,-0.002448,-0.079002,0.20155,-0.079008,0.023047,0.12505,-0.002443,-0.053446,0.023059,-0.027956,-0.027969,0.099577,-0.10453,0.099534,0.074044,-0.10449,0.048543,0.17612,-0.027944,-0.2065,-0.20649,0.023029,0.099515,-0.053488,-0.002472,0.023035,0.048536,-0.053439,0.023047,0.27813,-0.002461,-0.027987,-0.00251,-0.079008,0.099552,-0.027969,-0.10447,-0.027944,0.023059,0.048561,0.074062,-0.078977,0.17602,0.048543,0.12504,-0.002454,-0.027974,0.023059,-0.027962,-0.027962,-0.027944,0.074038,-0.079033,-0.027987,0.20158,-0.027956,0.074069,-0.23201,-0.078953,-0.027969,-0.10449,0.048543,0.09951,-0.02798,-0.078984,-0.053476,0.17612,-0.078972,-0.10448,0.023072,0.023054,-0.10449,0.12502,-0.028018,-0.002479,0.023035,-0.002461,-0.10444,0.048567,-0.027962,-0.002454,-0.02798,0.099515,0.048531,-0.002472,0.023017,0.074075,-0.027944,-0.027969,-0.027938,-0.078966,-0.053482,-0.079014,-0.028005,-0.053458,-0.002461,0.023029,0.099583,0.2526,-0.053446,-0.002443,-0.18102,0.15053,-0.15552,-0.027969,-0.20652,0.12508,0.35465,0.048555,-0.002467,-0.027944,-0.027998,-0.027998,0.099521,-0.027969,-0.002461,-0.10447,0.099595,-0.12999,-0.053446,0.099559,-0.10449,0.22704,-0.15551,0.023035,-0.002485,-0.002443,-0.002454,-0.12996,0.048555,-0.078972,0.023041,0.048482,-0.10449,0.074062,0.17609,-0.078977,-0.13,0.048567,-0.027969,-0.027974,-0.078984,0.15052,-0.002461,-0.002479,-0.002467,0.048555,0.074062,0.023047,-0.027969,-0.002448,0.099546,0.074038,0.048506,-0.12999,-0.002461,-0.002467,0.04858,-0.053488,-0.078947,0.048561,-0.002485,0.25255,-0.181,0.048561,0.074051,-0.002461,0.074081,0.099577,-0.05347,-0.12999,0.048543,-0.079021,0.023035,0.12505,-0.027956,0.074062,-0.10447,-0.027956,0.12508,0.048555,-0.027993,0.07402,-0.079021,-0.027962,-0.027962,-0.078972,0.074087,-0.05347,0.15059,-0.002461,-0.10448,-0.079026,-0.079002,0.30363,0.12505,-0.027969,-0.12997,0.023059,0.048561,-0.15548,-0.18102,0.074013,-0.027962,-0.078996,0.099534,-0.053451,0.023059,0.074057,-0.00243,-0.053464,-0.078984,0.048512,-0.027993,0.023047,-0.027944,-0.002461,-0.053458,0.074087,-0.027969,-0.053476,-0.078977,0.22704,-0.053476,-0.053476,-0.10451,0.048567,0.074062,-0.002436,0.074057,-0.002461,0.15056,0.15051,-0.10449,0.048543,-0.20651,0.12509,0.25262,-0.13,-0.15548,-0.002467,0.12509,0.22704,-0.10452,-0.05347,0.12505,-0.027974,-0.00243,0.023065,-0.12996,-0.002454,-0.002491,0.074033,0.048531,-0.053482,-0.05347,-0.002467,0.074075,-0.027944,-0.15549,-0.10445,-0.002467,0.15055,-0.079021,-0.053482,0.048561,0.09954,0.09957,0.12507,0.074051,-0.053446,-0.10449,-0.002503,0.15059,0.099552,-0.18099,-0.07899,-0.12998,-0.002461,-0.078977,-0.027938,0.023023,0.25256,0.023023,-0.027987,0.023047,0.2016,0.048585,0.023035,-0.027962,0.023059,0.048512,-0.053513,0.023029,-0.027993,-0.053464,0.12507,0.074062,-0.20648,-0.002443,0.099559,-0.078996,0.20155,-0.053495,-0.002467,0.12505,0.074044,0.1506,-0.10448,-0.078984,-0.027956,-0.053464,-0.079026,-0.13002,0.1506,0.023041,0.074057,-0.027925,-0.078972,0.074057,-0.027962,0.074026,0.048506,-0.053495,0.074038,-0.10449,0.023065,0.048555,-0.02795,0.048561,0.023035,0.023023,-0.027998,0.048531,-0.002454,-0.002467,-0.078966,0.023078,-0.002454,0.12506,-0.05347,0.048543,0.17603,-0.10452,-0.002448,0.074062,-0.1045,-0.053464,0.048573,0.048585,0.12511,0.099528,-0.13005,0.023023,-0.053506,0.074062,-0.027969,0.12507,-0.00243,0.074062,-0.02795,-0.002461,0.023005,-0.078996,0.09954,0.048531,0.074069,-0.10447,-0.027938,-0.002454,0.048561,0.023029,-0.028005,0.048512,-0.002485,-0.027944,-0.002443,-0.053451,-0.002461,-0.12996,0.023041,-0.053488,0.15053,-0.23203,0.68619,-0.25754,-0.027962,-0.10447,-0.12997,0.40563,-0.15548,0.12506,0.35459,-0.20655,0.48214,-0.43607,-0.002448,-0.027969,-0.18097,0.48216,-0.053458,-0.027962,0.22704,-0.15553,0.53316,-0.07899,-0.10447,0.12509,-0.078977,0.20161,-0.12998,-0.053495,-0.10453,-0.028011,0.40563,-0.18098,0.023047,0.074069,-0.078947,0.45664,-0.15548,0.074044,-0.028029,-0.23202,-0.002461,-0.35956,0.2016,-0.18098,-0.027956,0.15061,-0.28301,-0.1045,-0.002516,-0.0535,0.43114,-0.28303,-0.002467,0.1251,0.30364,-0.05347,-0.002479,-0.053464,0.12501,-0.0535,0.023029,-0.002485,-0.00243,-0.05347,0.048555,0.048573,-0.027969,-0.002461,-0.10452,0.048506,0.27812,-0.053495,-0.078966,-0.053458,-0.10447,-0.027944,-0.12999,-0.12998,0.27805,0.02301,-0.002461,-0.078984,0.099583,0.074062,-0.078966,0.074075,-0.002472,-0.002461,-0.053519,0.048525,-0.027974,-0.053476,-0.053458,0.048567,-0.002436,-0.053488,0.048561,0.12506,-0.079021,0.09954,-0.1045,-0.078959,0.023047,0.048549,0.12509,0.15059,-0.232,0.12508,-0.079045,-0.079002,-0.053482,0.048536,-0.002461,-0.027969,-0.02795,-0.027944,-0.027969,0.12506,0.17604,-0.002485,0.048555,-0.053488,-0.002454,-0.078959,0.074051,0.074057,0.12508,0.048531,-0.10452,-0.002461,0.023023,-0.07899,-0.002436,0.15058,-0.078959,-0.027944,-0.078984,-0.078996,0.17604,-0.079021,-0.05347,0.40563,0.048549,-0.002436,-0.1045,0.023041,-0.027944,-0.1045,-0.079002,-0.078996,0.048543,-0.053458,0.023029,0.074075,-0.002448,0.048531,-0.02795,-0.10447,-0.002497,-0.053513,0.048549,-0.053476,-0.05347,-0.00243,0.12506,0.25262,-0.027956,-0.13002,-0.079021,-0.10451,0.048518,-0.002461,-0.10448,0.023059,0.22712,0.023059,-0.053458,-0.053476,0.15053,0.02301,-0.027956,-0.053488,0.048561,-0.053464,-0.02795,0.1251,0.023035,-0.027987,-0.002497,0.048506,0.048543,0.048555,-0.05347,0.048561,-0.002454,-0.027969,-0.053458,-0.027956,0.048512,-0.053488,0.074057,0.048543,-0.027969,-0.053446,-0.078984,-0.10447,0.22712,0.2781,-0.002503,-0.028018,-0.027987,-0.053476,0.048555,0.023065,-0.002467,-0.027938,-0.027956,-0.1045,0.22706,-0.079008,-0.078972,-0.027962,-0.002461,0.09957,0.074038,-0.002461,0.074069,0.09954,-0.053506,-0.053495,0.023029,-0.002461,-0.078966,-0.027925,-0.002467,-0.002436,-0.027969,-0.053488,0.15053,0.023017,-0.002454,-0.053476,0.048555,-0.027956,0.099564,0.1506,-0.002443,-0.027998,-0.053519,-0.0535,-0.027974,-0.10447,0.048536,0.023078,-0.027974,-0.12994,-0.002461,-0.027962,0.22702,-0.002497,0.074038,-0.002485,-0.12998,0.099588,0.22713,-0.18098,-0.13,-0.1045,-0.002516,0.048518,-0.027956,0.22707,-0.10447,-0.053451,0.048567,0.023072,0.074062,-0.079002,0.27805,-0.10452,0.023047,0.12505,-0.053458,0.074057,-0.053451,-0.078959,0.048543,-0.027974,0.02298,0.048531,0.023035,-0.002479,-0.027938,-0.027944,-0.027956,-0.002423,-0.002454,0.12504,0.20155,-0.00251,-0.002461,-0.002472,-0.10447,0.023059,0.074087,0.048561,-0.2065,-0.13,0.023017,-0.002497,0.074033,0.20159,-0.053464,-0.002436,-0.002472,-0.15548,0.074057,-0.053488,0.15053,-0.027993,-0.002454,-0.002461,-0.027974,-0.027925,0.09954,0.023041,0.048567,-0.078996,-0.079008,0.023035,0.048518,0.12506,-0.002436,-0.002461,-0.053464,-0.053446,-0.10447,0.023041,0.20155,-0.002485,-0.002472,0.023047,0.074057,-0.053446,-0.027956,-0.10449,0.023065,0.12507,-0.053525,0.09954,-0.027974,-0.10447,-0.07899,-0.002443,0.048561,0.25262,-0.18098,-0.053495,0.12502,-0.053506,-0.0535,-0.002443,0.048555,0.048555,0.023078,-0.027944,-0.10447,-0.027987,-0.028011,-0.028005,-0.078972,0.023035,-0.10449,-0.10444,-0.002443,0.023035,-0.078953,-0.002485,0.20153,-0.078996,0.048555,0.023029,-0.027962,0.15057,0.099577,-0.027925,-0.15549,-0.053495,-0.053513,-0.002521,-0.10448,0.048567,-0.027969,0.023065,-0.078972,-0.002454,0.023078,-0.027993,0.22705,-0.0535,0.22707,0.074069,-0.18099,-0.078977,-0.002461,0.023078,0.099552,-0.002485,-0.00251,0.074013,-0.027969,-0.002448,-0.05347,-0.078947,0.074075,0.023047,-0.15548,0.25259,0.048487,-0.18102,0.15055,-0.12999,-0.15548,-0.002436,0.048555,-0.078972,-0.02795,0.023054,0.02301,0.048512,-0.12998,0.09957,-0.002472,0.023065,0.048585,-0.078977,-0.027969,0.074038,0.17603,-0.20651,0.15056,0.074044,-0.078977,0.099583,0.099552,-0.10447,-0.078947,-0.027993,0.099521,0.3291,-0.079002,-0.10449,-0.078959,0.023041,-0.002461,-0.002436,-0.078966,0.20158,0.12504,-0.079021,-0.02798,-0.078966,-0.027974,-0.027938,0.023072,-0.002461,0.023035,-0.002461,0.048506,0.048531,-0.053451,-0.002479,-0.053476,0.074075,-0.002461,0.048555
