-0.12999,0.32908,0.2016,-0.002412,-0.25745,-0.35952,0.15049,0.17603,-0.079014,-0.1555,0.15058,0.12503,0.15055,0.17611,-0.18092,-0.283,-0.028054,0.20153,0.20161,-0.41055,0.023041,0.17606,0.048567,0.048592,-0.18094,-0.18099,0.073965,0.15051,-0.027993,-0.283,-0.053451,0.22707,0.17607,0.099601,-0.28294,-0.334,0.073977,0.27803,0.023023,-0.30852,-0.12996,0.15055,0.20158,0.1506,-0.002394,-0.33401,-0.13007,0.176,0.074038,-0.23199,-0.002461,0.4056,0.2271,-0.053421,-0.28295,-0.28301,0.17601,0.25254,-0.10451,-0.28303,-0.002472,0.3546,0.048567,0.023084,-0.28295,-0.33402,0.12499,0.35455,-0.002485,-0.23201,-0.181,0.25256,0.20158,0.1506,-0.002387,-0.385,0.022986,0.25252,-0.028011,-0.28302,0.074062,0.2781,0.20158,0.12508,-0.18095,-0.20649,-0.028029,0.09951,-0.002454,-0.334,0.09957,0.27808,0.20158,0.15059,-0.20645,-0.30851,0.099497,0.12503,-0.10449,-0.23201,-0.002461,0.25257,0.22708,0.12509,-0.23196,-0.30851,0.073995,0.25255,-0.10449,-0.2065,-0.027969,0.17607,0.12507,0.099619,-0.078917,-0.30852,0.073965,0.27803,0.023017,-0.181,0.023047,0.30358,0.023047,0.1506,-0.25744,-0.25748,-0.002516,0.12501,-0.002491,-0.2065,-0.053482,0.30357,0.12507,0.17612,-0.15542,-0.30849,0.048494,0.25252,-0.079008,-0.25753,0.023035,0.27808,0.2526,0.099595,-0.20645,-0.18098,0.125,0.20154,-0.13,-0.30853,-0.078977,0.27808,0.2271,0.074087,-0.18094,-0.28302,0.048476,0.27803,-0.002472,-0.20651,0.099546,0.17606,0.048561,0.17612,-0.20644,-0.33401,-0.028029,0.25254,-0.079002,-0.28303,-0.002472,0.4311,0.22708,-0.053446,-0.20644,-0.28301,0.12501,0.25255,-0.053495,-0.28303,-0.027969,0.20158,0.20158,0.2271,-0.12995,-0.28302,-0.00251,0.17603,-0.02798,-0.20649,-0.027956,0.15055,0.22707,0.15059,-0.027901,-0.33399,0.022974,0.22701,-0.002497,-0.2065,0.048555,0.20158,0.15057,0.023065,-0.20646,-0.20649,0.0485,0.074013,-0.027974,-0.2065,0.099546,0.22706,0.20156,0.023072,-0.18092,-0.46151,-0.002521,0.30349,0.17603,-0.1555,-0.027944,0.12509,-0.002443,0.30363,-0.1809,-0.35951,0.048463,0.15051,0.074026,-0.10448,0.074051,0.27808,0.023047,-0.00243,-0.25747,-0.30855,0.12499,0.022998,0.12506,-0.23203,0.023041,0.20158,0.40564,-0.18091,-0.1554,0.074111,0.27803,-0.02809,-0.53815,-0.69113,-0.23202,-0.15548,0.22709,0.63523,0.22719,-0.12999,-0.15555,0.30356,0.073989,-0.18107,-0.002534,0.30355,0.30361,-0.002345,-0.58898,-0.63999,-0.15551,0.73717,0.2271,0.099588,-0.25752,-0.079045,-0.25761,-0.00251,0.074118,-0.002461,0.099485,0.3036,0.12507,-0.30854,-0.10449,0.22704,-0.28304,0.4057,0.099681,-0.002387,0.32906,0.048482,-0.053513,-0.76771,-0.66565,-0.028018,0.023078,-0.15543,-0.12992,0.30361,0.48205,0.8647,0.71173,0.15065,0.35466,-0.86962,-0.8187,-0.13002,-0.64008,0.40571,-0.18103,0.17597,0.073984,-0.35959,-0.18105,1.0688,0.12507,0.30365,-0.53802,-0.64013,0.15051,0.32908,0.1251,0.099637,0.35465,0.30356,-0.12996,-0.61456,-0.35953,-0.33402,0.20149,0.22705,0.73725,-0.43608,-0.74215,0.022986,0.074013,1.1454,-0.10438,-0.97161,-0.4871,0.68614,0.66061,0.55866,-0.33404,-0.23207,-0.053451,-0.20637,-0.28294,0.50772,0.25252,-0.20663,-0.23207,-0.86967,-0.38514,-0.35964,0.66065,0.55876,0.99245,-0.25741,0.94113,-0.25755,-0.56359,-0.38503,-0.79318,-0.51262,-0.64011,-0.30857,0.68613,0.66077,0.43113,0.27806,-0.078935,0.50774,1.0689,-0.64012,-0.48713,-0.3341,-0.92068,-0.38501,0.023035,0.60969,-0.51264,-0.74219,0.2526,1.0432,0.30373,0.22718,0.30368,-0.53815,-1.0739,-0.33421,-0.079045,-0.25751,0.45672,0.35476,1.1709,0.45666,-0.46152,-0.4361,0.43106,0.25257,0.30363,-0.94615,-0.61464,0.073959,-0.25758,0.30364,0.023078,1.5535,0.58421,-1.0227,-0.71663,-1.0228,-0.46154,-0.10449,1.5279,1.5279,0.66085,-1.0737,-0.97172,-1.2014,-1.6349,-0.8442,1.1708,2.2422,1.4514,-0.7676,-0.56358,-0.43613,-1.2014,-0.20661,0.48206,0.60968,1.2985,1.5025,-0.53809,-0.81866,-1.3798,-1.1248,-0.38516,-0.2066,0.2781,0.48219,0.40575,-0.2065,0.32907,0.45663,0.58417,0.78816,0.22702,0.25259,0.43123,-0.38495,-0.7676,-1.7369,-1.3799,-0.30861,-0.25759,-0.41059,0.91582,1.2475,1.5535,1.2474,-0.64018,-0.48724,-0.35961,-0.51259,-0.79307,-0.48701,0.15055,0.63518,0.12507,0.074062,-0.10445,0.68621,1.3239,0.32912,-0.74203,-0.0535,-0.3341,-0.28314,0.71168,-0.283,-1.6604,-0.15549,0.94144,-0.25741,-0.56364,-0.46168,-0.028114,-0.002583,0.023041,0.04861,-0.385,0.12512,0.02309,1.579,1.7831,0.27805,0.83912,-0.69126,-0.30854,-0.36133,-0.33401,-0.56364,-0.1554,-1.0227,-0.76764,-0.71666,0.15055,0.78807,0.32906,0.12512,-0.12996,0.25252,0.2015,-0.002516,0.15061,0.58428,0.63524,0.099577,0.40557,-0.46161,-0.86972,-0.99728,-0.20652,0.50767,1.2219,1.9618,-0.41052,-1.9411,-1.1248,-1.0483,0.17604,1.2218,0.89019,0.66082,-0.10446,-1.0738,-0.25754,-0.69112,0.048561,0.09957,0.074057,0.48213,0.32905,0.22712,0.25265,0.45672,0.20164,0.43113,-0.20653,-0.41053,-1.2524,-0.84427,-0.12996,-0.13004,0.3803,1.3494,1.6555,-0.56372,-1.1248,-0.71667,-1.3289,-0.15549,0.53318,0.71184,1.0179,0.60968,-0.25758,-0.43623,-0.99715,-0.43604,-0.89513,-0.283,0.35462,0.99232,0.73724,0.40571,-0.41056,-0.58936,-0.20666,1.4259,1.273,-0.66555,-0.71663,-0.89519,-0.002374,-0.61452,-0.25754,-0.41074,-0.6657,-0.053506,1.1454,1.2729,0.32908,-0.30855,0.27819,-0.41057,-0.43612,-0.079179,-0.079075,0.074173,0.35467,0.40561,0.25266,0.30366,-0.41049,-0.81865,-0.6656,0.27805,-0.15554,0.53326,0.048487,0.27795,-0.232,0.45678,-0.89518,0.074124,0.074057,0.50759,-0.13007,-0.38507,-0.64011,-0.25758,0.35458,0.099552,0.048592,0.15064,0.38022,0.58424,0.81378,-0.053544,-0.38511,-0.20658,-1.0483,-0.46141,0.48228,1.5789,-0.43618,-0.53821,0.3291,-0.64017,-1.3033,-0.99719,0.15063,-0.18095,0.25262,0.76272,0.68616,0.30353,0.099528,-0.28297,1.0689,0.22707,-0.25754,-0.56359,0.58423,0.86486,-0.30859,-0.028114,-0.86972,-1.5328,-0.46155,0.63528,0.40557,1.2983,0.20176,-0.53803,-0.84425,-0.64022,-0.25751,-0.25756,0.38008,0.76272,1.6045,0.25265,-0.48705,-0.84416,-0.56363,-0.5637,-0.079093,0.50765,1.9107,0.81378,-0.13008,-0.58913,-1.3033,-0.64013,-0.18116,-0.46167,0.15065,0.074142,0.20168,0.27811,0.25265,0.45667,0.38014,-0.28302,-0.33413,-0.33412,-0.1045,0.074038,0.2016,0.27812,-0.002485,-0.002454,-0.61457,-0.53802,0.55869,0.32908,0.099479,0.83927,-0.35955,0.40566,-0.46165,-0.7167,-1.2267,-0.48706,0.40561,0.9668,0.66065,-0.079021,-0.28303,-0.15557,0.5587,-0.25748,-0.35949,0.50771,0.48221,-0.56373,-0.1045,-0.12988,0.45674,-0.64018,0.12502,0.45657,-0.18105,-0.79313,-0.43606,0.15055,0.048482,-0.15547,-0.30847,-0.002497,0.68621,0.20163,0.68633,0.78828,0.50755,-0.61475,-1.2267,-1.2012,-0.8187,0.55863,1.9871,1.7321,-0.61454,0.48226,-1.0482,-1.2525,-1.1249,-0.283,-0.48711,0.45665,0.50771,0.99239,0.074087,-0.18097,-0.35961,0.35456,-0.002485,-0.053592,-0.35952,-0.46158,1.6301,1.1455,-0.61455,-0.71666,-0.64025,-0.43624,-0.41068,-0.10451,0.40568,0.53323,0.50775,-0.20637,-0.30847,-1.0482,-0.53813,0.12493,1.0687,0.89027,0.63517,-0.20658,-0.33409,-0.97172,-0.35947,0.53328,0.12507,-0.13011,-0.12994,-0.053451,-0.25752,0.17607,0.60965,-0.20658,-0.81864,0.099668,0.099546,0.073935,0.15059,0.023108,-0.078935,0.83926,-0.053506,-0.6402,-0.53808,0.35473,1.0434,0.15049,-0.53812,0.074062,-0.69111,0.09951,-0.027993,-0.5126,-0.33411,0.35468,0.12508,0.099491,-0.078977,-0.20652,-0.30854,0.12508,0.38011,0.023096,-0.053397,-0.2575,0.81373,1.2729,0.50765,-0.5891,-0.99721,-0.43616,0.074026,-0.20655,-0.64002,-0.18101,-0.053488,-0.38506,0.25265,0.07402,-0.05347,-0.30848,1.0432,2.3442,0.30364,-0.7932,-1.0737,-0.71671,-0.64017,-0.8442,-0.35953,0.71175,1.7831,0.048567,-0.46148,-0.25737,0.22706,-0.079161,-0.41071,0.43108,0.20163,0.22709,0.22715,-0.89509,-0.436,-0.53808,0.15056,0.20151,-0.028005,0.023023,1.0689,0.023059,0.12509,-0.28306,-0.10449,-0.053476,-0.053531,-0.10458,-0.30854,-0.25753,-0.25753,-0.027944,0.20161,1.1199,0.27812,0.074087,0.099546,-0.23207,-0.15557,0.15051,0.25255,-0.15551,1.0179,-0.28295,-0.86965,-0.76767,-0.33403,-0.079093,-0.38515,0.22716,-0.002436,0.55869,0.45665,-0.0535,0.78828,0.35473,-0.33401,-0.2832,-0.58915,-0.15552,-0.053427,0.17614,0.83924,-0.078941,-0.6911,-0.35954,-0.027987,0.40547,-0.15553,-0.46152,-0.30849,0.099564,0.40571,0.32912,0.66067,0.50772,-0.30854,-0.48717,-0.28302,-0.69116,0.25267,-0.027993,0.023041,-0.07899,-0.10444,1.0945,0.12505,-0.53831,-0.51268,-0.15551,-0.28298,-0.053482,0.22709,0.48222,0.20169,0.22719,-0.35957,-0.028121,0.227,0.27806,-0.46157,-0.76765,0.53318,0.53324,-0.58898,-1.1246,-0.69117,0.81365,0.71173,0.89031,-0.5637,-0.38518,-0.41064,0.20158,0.15062,-0.33399,-0.2065,-0.35965,0.048567,0.074167,0.30364,1.2984,0.71169,-0.94626,-0.97176,-0.41054,0.17607,0.45665,0.81376,-0.38502,-0.61467,-0.13009,0.2525,-0.05336,0.7885,0.53335,-0.43609,-0.38523,-0.61474,-0.13004,-0.027974,-0.027962,0.53311,0.4567,-0.18087,-0.30849,-0.053544,-0.28312,-0.15557,-0.13001,-0.46156,0.35464,2.3697,-0.13,-1.0227,-0.48697,-0.48703,-0.18111,-0.46169,-0.51265,-0.46157,1.1709,1.2218,0.9923,-0.027901,-0.71668,-0.84422,-0.74221,-0.4871,0.43117,0.27814,-0.20652,0.17612,0.27815,0.6863,0.17622,-0.64023,-0.30873,-0.053495,0.22715,-0.10447,0.81368,0.35455,-0.69113,-0.61455,-0.76755,-0.10443,0.20153,0.023005,-0.12998,-0.15548,0.60967,0.20149,-1.0227,0.81384,2.1658,1.324,0.022883,-1.1503,-1.3034,-1.2778,-0.84426,-0.23204,0.45683,0.4822,0.12518,-0.28304,-0.079021,0.048482,0.38008,0.20157,0.15056,0.30356,-0.46154,0.25267,0.22717,-0.18106,-0.56372,0.40568,0.023127,0.12513,-0.053482,-0.51268,-0.6146,0.22702,1.1709,-0.61461,-0.4871,-0.078972,-0.43609,-0.61465,-0.15556,0.099564,0.40568,0.60974,0.35462,0.20156,0.45659,0.68622,-0.43603,-0.97167,-0.61463,0.023023,0.048629,0.27813,0.15062,-0.002479,0.17602,-0.20658,-0.25753,0.15062,-0.46163,-0.2065,0.48222,0.17611,-0.28306,-0.00251,0.73722,0.30363,-0.25753,-0.74213,-0.13004,-0.13004,0.15054,0.35465,0.45687,-0.25751,-0.1556,-0.18106,-0.15553,-0.41051,-0.38505,0.60962,0.32909,1.12,-0.15543,-0.48706,-0.15562,-0.079057,0.45664,-0.181,-0.25754,0.38008,-0.078892,-0.38503,-0.74209,-0.13002,1.0432,0.45663,-0.35962,-0.71665,-0.33401,0.8648,0.12513,-0.28303,-0.10442,0.074057,-0.23212,-0.23205,-0.25754,-0.25752,0.099534,0.048561,0.22707,0.27817,0.50775,-0.41058,-0.028018,-0.61454,0.43123,-0.48702,-0.20653,-0.079075,0.71173,-0.69119,-0.94622,-0.18103,0.48213,0.63522,0.30369,-0.5636,-0.33413,0.73722,0.17608,0.17611,-0.30848,0.20158,-0.02798,-0.02798,0.023029,-0.48713,-0.078977,0.1761,-0.18094,-0.027907,-0.25745,-0.10447,-0.002607,-0.35963,0.68623,0.32918,0.27812,0.3291,-0.027969,-0.43606,-0.41052,-0.53814,-0.2321,-0.58916,0.43118,0.7628,0.48216,0.30364,-0.23202,0.048634,-0.69105,0.20163,0.40555,-0.3087,-0.38516,-0.58914,-0.28302,0.78834,0.04858,0.099595,-0.027889,0.53318,0.45651,0.12501,-0.43609,-0.41051,-0.43604,0.17612,0.17616,0.02309,0.048536,0.35462,-0.10463,-0.53816,-0.30851,0.023054,0.55869,-0.71665,0.50769,-0.18097,0.074118,-0.35958,0.25251,1.1964,0.17607,-0.58912,-0.51264,-0.2831,-0.61467,-0.7676,-0.10441,0.5077,0.78821,0.27817,-0.027938,-0.10452,0.023054,0.07402,-0.15553,-0.10449,-0.33398,0.048506,0.048506,-0.078972,-0.28307,-0.4106,-0.69119,1.0434,1.1709,0.58427,-0.74212,-0.86977,-0.079057,-0.07899,-0.46162,-0.4106,0.023023,0.074013,0.22714,0.50777,0.15067,0.15062,0.32896,-0.25755,0.074033,-0.48703,-0.46155,0.40561,1.324,0.60969,-0.078959,-0.10444,-0.5637,-1.3034,-0.6912,-0.92068,-0.20647,0.15052,1.2218,0.91587,0.32925,-0.43609,-0.23217,-0.079081,0.3291,-0.71659,-0.28302,0.38016,1.2984,0.099619,-0.10446,-0.8187,-0.18109,0.048518,-0.43612,-0.84419,-0.30847,0.66069,0.71176,-0.12993,-0.46156,-0.078966,-0.13014,0.022998,0.30355,-0.56359,0.15063,0.53321,0.94132,-0.38511,-1.0482,-0.5381,0.37999,0.15058,-0.46153,-0.078928,0.17616,0.074062,0.074136,-0.078941,0.53325,0.3291,-0.28322,-0.38518,-0.079057,-0.002412,-0.20654,0.22707,-0.002485,-0.23198,0.17622,1.1965,0.60964,-0.35959,-0.76769,-1.0993,-0.81868,0.20152,0.89027,0.27817,-0.053372,0.15058,0.30351,0.099503,-0.4106,-1.0483,0.15052,1.0688,0.12513,-0.53801,-0.41041,-0.3085,-0.18111,-0.43614,0.38016,1.171,-0.15546,0.17604,-0.30858,-0.028036,-0.25753,-0.23207,0.099461,0.023084,0.15057,0.81381,0.048616,-0.078953,0.12503,-0.30855,-0.53811,-0.41059,0.048458,0.17612,0.35465,-0.23205,0.17607,0.38014,-0.53806,-0.15545,-0.23196,-0.18104,-0.15562,-0.15548,-0.12994,-0.053464,0.12501,0.63518,0.63527,0.45671,-0.84421,-0.33409,0.53311,-0.64016,-0.51258,-0.30846,-0.002387,1.0178,0.074038,-0.13002,-0.41055,-0.41054,-0.028078,0.22704,-0.05347,0.17614,0.17608,1.0688,-0.18098,-0.20649,-0.64006,-0.46159,-0.23212,-0.028005,0.25263,-0.12991,0.22712,0.22704,-0.20653,0.60977,-0.48705,-0.181,0.35452,0.099491,-0.76775,-0.7677,-0.28303,0.81379,1.069,0.32926,-0.385,-0.43616,-0.61472,-0.23209,-0.20657,-0.69116,-0.56365,0.58421,0.86489,1.0689,0.3802,0.048463,0.30345,-0.7422,-1.1247,-0.89516,-0.18096,0.45666,0.099619,0.50772,-0.41054,0.81381,0.073898,-0.56371,-0.38517,-0.10445,0.81378,-0.18106,-0.053427,-0.18094,0.63534,0.30369,-0.30865,-0.58917,-0.61465,-0.71665,-0.28303,0.2016,0.35463,0.25262,0.22717,0.12512,0.3545,0.022968,-0.56361,-0.30851,-0.30853,1.7831,0.43119,0.35476,-0.4615,-1.2014,-0.9464,-0.74223,-0.43611,-0.58911,0.17613,0.32918,0.17612,1.2475,0.83943,-0.48705,-0.18114,-0.10458,-0.38513,0.12502,0.17603,0.02301,-0.002472,0.48226,0.71192,-0.12991,-0.61471,-0.53821,-0.56367,-0.23203,-0.23201,0.68626,0.78834,-0.10452,-0.38502,0.3036,0.43099,-0.35958,-0.56362,-0.25752,-0.41056,-0.02798,-0.25759,-0.20649,2.3444,1.4006,-0.18109,-1.3289,-1.2269,-1.0227,-0.23204,0.76266,0.22707,-0.027895,-0.38495,0.12513,0.35463,0.04858,-0.33401,0.099626,0.32912,0.83921,0.27809,-0.5891,-0.94621,-0.28311,-0.56375,0.22713,0.38025,-0.46151,-0.41058,0.12502,0.048567,-0.027925,-0.58907,0.38014,1.1453,1.0943,-0.20649,-1.0737,-0.76767,0.25251,-0.18103,-0.43602,-0.002418,0.17607,0.99216,0.074002,0.0741,-0.12991,-0.18098,-0.078996,-0.053482,-0.12998,-0.35954,-0.18104,0.63511,0.50766,0.30362,-0.38499,-0.30853,-0.41065,-0.64018,-0.027925,0.94135,0.25262,0.66065,-0.23201,-0.51262,-0.92065,-0.5636,-0.002485,-0.002423,0.38019,0.35465,0.35459,0.45653,0.15056,-0.15545,-0.002394,-0.053482,0.15053,-0.5126,-0.181,0.63532,-0.61461,-0.56367,-0.64014,0.099583,0.32918,0.048543,-0.51268,0.25253,-0.23201,-0.002436,-0.1555,0.15049,0.17605,0.25262,0.17614,0.40569,0.71176,-0.43606,-0.027993,-0.89517,-0.41056,0.25249,2.2677,0.12513,-1.0992,-0.84422,-0.18103,-0.69115,-0.3596,-0.48707,-0.02798,1.0942,0.60977,0.63529,-0.15554,-0.5381,-0.00254,0.60968,-0.28301,-0.46151,0.30369,-0.15561,0.074062,-0.30855,-0.10449,0.45661,0.89032,0.12508,-0.38503,-0.53803,-0.69115,-0.25762,-0.10449,0.048512,-0.002521,0.32907,0.43113,-0.46153,-0.07885,0.074167,0.73725,0.17601,0.12505,-0.002479,-0.053446,-0.58911,-0.58919,-0.69117,0.15058,0.45666,0.27812,0.15052,0.25255,0.20158,-0.64012,-0.53806,-0.23205,-0.181,0.023096,0.074149,0.35464,0.53307,0.22708,0.2781,-0.053421,-0.48703,0.048518,0.074033,0.1506,-0.10442,-0.35956,-0.38527,0.22704,0.71178,-0.61454,0.099644,-0.46164,0.48216,-0.35961,-0.79316,-0.74215,0.17598,0.30361,0.15062,-0.05347,0.15057,0.43109,-0.07891,0.17614,0.099644,-0.20641,0.20149,0.2015,0.27804,0.1506,-0.48707,-0.20655,-0.15548,0.25272,-0.61451,-0.33407,0.40555,-0.079118,-0.079045,-0.46162,-0.027944,-0.25751,-0.15551,-0.25754,0.3803,-0.002363,0.25252,0.099515,0.53318,-0.30854,-0.61463,0.17602,-0.20654,-0.43607,0.048683,0.074155,0.278,0.60965,-0.053482,-0.64009,-0.43608,0.32912,-0.51264,-0.13001,-0.10433,0.35473,0.40556,0.25256,-0.43615,-0.35957,-0.43612,0.0485,0.09957,0.27819,0.32925,-0.25751,-0.28312,-0.28309,0.40562,-0.053439,-0.5891,0.3036,0.048525,0.8903,0.40571,-0.23198,-0.46166,-0.86976,-0.69122,-0.28301,0.12515,1.1709,0.2016,-0.15548,-0.18089,0.023059,-0.18119,-0.56366,-0.64016,0.53319,1.375,0.20159,-0.74217,-0.74215,-0.66564,0.48221,1.3238,0.48211,-0.56365,-1.0482,-0.33404,0.22704,0.91581,0.074087,-0.25745,-0.23206,-0.028066,-0.079045,-0.15551,0.023096,-0.64014,0.81373,1.1709,1.1709,-0.38498,-0.92071,-0.76783,-0.94628,-0.35956,0.40569,0.09957,0.35464,-0.027962,0.25263,-0.30847,-0.027962,0.22705,-0.43604,-0.5381,-0.079045,1.1198,1.1199,0.17616,-0.15548,-0.56354,-0.81871,-0.25767,-0.3086,-0.30855,-0.25746,-0.25751,0.22704,0.91582,1.171,0.12518,-0.23205,0.12487,-0.07907,-0.12998,-0.69111,-0.69109,0.50767,-0.10444,0.60973,-0.46152,-0.66566,-0.20661,0.022925,0.58413,0.023108,-0.3085,1.1199,0.76277,0.048512,-1.0482,-0.56364,-0.30868,-0.027962,0.023072,-0.51255,-0.25752,0.15055,0.15059,0.074111,-0.33399,0.099588,0.45656,0.27806,0.048549,-0.20652,-0.46162,-0.002497,-0.002418,1.477,-0.28298,-0.027925,-0.33412,-0.58916,-0.43616,-0.10447,-0.35953,-0.51266,-0.30857,0.27814,0.66088,0.83942,0.12493,-0.23209,0.099534,-0.38508,-0.56362,0.02295,0.099521,0.38016,0.55887,0.89032,-0.20653,-0.33404,-0.64018,-1.2268,-0.33409,0.40563,0.76275,0.22712,-0.25746,-0.30851,0.45654,0.17595,-0.13001,-0.94615,0.099595,1.579,-0.10448,-0.84411,-0.89511,0.35466,0.35447,-0.2066,0.17609,0.04861,-0.181,0.5586,0.6607,-0.10451,-0.89512,-0.61451,0.53315,0.176,-0.079014,-0.69112,-0.053458,0.38008,0.074075,-0.20648,-0.35953,-0.12996,0.83918,0.76273,0.50768,-0.53809,-0.79316,-0.28312,-0.13001,-0.18098,-0.20642,0.22715,0.55862,-0.079051,-0.053555,-0.35954,-0.283,0.32908,0.12509,0.023133,-0.1299,-0.078923,0.58417,0.099552,-0.13,-0.48713,-0.28308,0.45651,-0.23207,0.6863,-0.027815,-0.74211,-0.41068,0.099559,0.27811,0.63527,-0.15553,0.073928,-0.13008,0.20163,-0.66553,-0.53801,0.45659,0.30356,-0.1045,-0.30852,-0.20653,0.40558,0.45666,0.4312,-0.46149,0.074081,0.89019,0.27808,-0.94622,-0.7166,-0.181,0.53308,-0.12999,-0.23202,-0.33396,-0.078953,0.048536,-0.079008,0.12501,-0.10444,0.17605,0.76268,-0.053476,0.30367,-0.05336,-0.35951,-0.51269,0.048536,-0.002454,-0.25743,-0.38516,-0.053598,0.12507,0.17613,1.0434,0.12512,-0.3597,-0.66573,-0.69113,-0.38501,0.6352,0.45664,-0.23199,0.30364,-0.23187,-0.10444,0.55855,-0.18108,-0.4361,-0.64011,-0.002467,1.3749,0.81373,-0.25748,-0.81862,-0.35957,0.30352,-0.33405,-0.56356,-0.5126,-0.002418,0.3546,0.30364,0.1251,0.15061,0.30363,0.2525,0.58418,-0.13004,-0.74214,-0.10446,0.023005,-0.20651,-0.181,-0.25743,0.099577,0.60964,0.66072,-0.002497,-0.97177,-0.48717,0.58416,1.2475,0.73738,-0.76757,-0.25753,-0.18116,-0.84425,-0.48714,-0.38506,-0.43606,0.3546,0.60967,0.68626,-0.078874,-0.30853,0.20147,0.63512,0.38018,0.5588,-0.10449,-0.41063,-0.58912,-0.35955,-0.71658,-0.41056,0.71162,0.023029,0.38017,-0.10447,-0.20648,0.4566,0.25254,-0.53813,-0.41054,-0.15542,1.0178,1.2474,-0.71674,-0.38507,-0.20652,0.32903,-0.079021,-0.41057,-0.86963,-0.46155,0.66072,2.9055,0.55871,-0.99724,-0.97182,-0.41072,-0.46167,-0.4616,0.2017,0.25267,0.32904,-0.33406,0.17609,0.68629,0.22713,-0.002528,-0.41058,0.023096,-0.53802,-0.41056,-0.13014,-0.28319,-0.25758,1.1965,1.4516,0.27809,-0.79322,-0.97171,-0.7421,-0.23204,0.20149,0.176,-0.41055,-0.20646,0.17616,1.0943,0.27813,-0.30852,-0.33399,0.12512,0.176,-0.28313,-0.66573,0.8393,0.099601,0.76268,-0.30854,-0.53807,-0.94611,-0.56351,0.66064,0.048463,0.278,-0.43604,-0.13001,0.38011,-0.12998,-0.12991,0.32926,0.5332,0.17596,0.27809,-0.30856,-0.84418,-0.15555,0.86477,0.45666,-0.43607,-0.66553,-0.25749,0.91571,-0.51263,-0.69117,-0.84418,0.78827,0.78823,0.43116,0.27815,-0.79307,-0.3596,-0.18118,-0.18109,-0.15553,-0.12994,-0.15549,0.81375,0.78831,0.66078,-0.28296,-0.6146,-0.15561,-0.30858,0.27807,-0.18098,0.048573,0.32904,0.1505,-0.25753,-0.38494,0.023084,0.58412,0.12505,0.048567,-0.38508,-0.30858,0.048506,-0.23198,0.20163,-0.053409,0.91581,0.96668,-0.15553,-0.10444,-1.3543,-1.0228,0.25249,0.20158,1.1199,0.074197,-0.86966,-0.30863,0.12504,0.78827,-0.33403,-0.48716,0.76272,-0.20648,-0.027944,0.45672,0.09954,0.50752,-0.23208,-0.48708,-0.56352,-0.66558,0.35456,0.86476,0.68627,0.07416,-0.38506,0.12498,-0.35963,-0.20653,-0.58909,0.099588,0.53313,0.15058,0.17609,-0.4615,-0.10447,0.30352,-0.028036,0.30349,-0.13,0.2781,0.30366,0.099681,-0.436,-0.64003,-0.43606,0.63509,1.1963,1.1964,-0.33404,-0.81868,-0.84426,-0.8442,-0.56359,-0.38495,-0.12998,0.9922,0.50758,0.53318,0.17617,0.38013,-0.002503,0.35461,0.43123,-0.4615,-0.15546,0.17598,-0.18114,-0.002521,-0.86969,-0.89517,0.17607,0.53321,0.074106,0.2017,-0.18094,0.55857,0.12499,-0.23203,-0.43601,-0.027956,0.83911,0.38016,0.27819,-0.66553,-0.58912,-0.028018,-0.35958,-0.079008,-0.46159,0.30359,1.0178,0.30358,-0.15551,-0.15542,-0.41052,0.35455,-0.053519,-0.053482,-0.53811,-0.43604,0.17607,-0.078966,-0.053421,0.53326,0.78821,0.58408,-0.18109,-0.30857,-0.43609,-0.30848,-0.10445,-0.33396,-0.053433,0.20172,0.55867,0.12491,-0.48719,-0.33407,-0.6401,-0.38508,0.53315,0.76276,-0.10447,-0.027907,0.099564,0.81366,0.099546,-0.25754,-0.41056,-0.41053,-0.13004,0.32918,-0.053446,0.43126,-0.35953,0.099436,-0.2321,-0.18106,-0.43604,0.5587,0.9158,0.17615,-0.41061,-0.56355,-0.33398,0.022913,0.07391,-0.3596,0.30361,-0.002454,0.81374,-0.15546,-0.46149,-0.35943,-0.053384,0.50759,-0.13007,-0.25756,0.66072,0.45662,-0.13009,0.17609,-0.5126,-0.71658,0.66073,0.5586,-0.46165,-0.48711,-0.6911,-0.28304,0.30355,0.20159,-0.10444,-0.12988,1.171,1.2983,0.22703,-0.28309,-1.0227,0.023072,-0.10449,-0.10454,-0.5636,-0.43601,0.048518,0.32901,0.35455,-0.078941,-0.38498,-0.078928,0.3036,-0.079008,-0.18103,0.15066,1.2219,1.3748,0.55864,-0.86972,-1.4053,-0.76774,-0.20664,-0.053495,-0.15545,-0.078825,0.32918,0.94119,0.38011,-0.20654,-0.58909,-0.30851,0.58414,0.048561,-0.18093,-0.589,-0.20648,1.2473,0.17599,-0.18109,-0.69114,-0.41058,0.38013,0.86481,-0.48706,-0.61457,-0.30853,0.27803,0.50764,0.22709,-0.71662,0.17609,0.48214,0.89031,-0.41055,-0.6656,-0.35958,-0.28318,-0.43616,0.099595,-0.30846,-0.078953,0.7372,0.71164,0.27812,-0.18089,0.66082,0.38004,-0.079045,-0.69113,-0.61458,-0.18103,0.38001,-0.20652,-0.15546,-0.15538,0.15065,1.9104,0.02295,-0.28311,-0.76766,-0.99721,-0.25757,0.12509,0.94139,0.58433,-0.25751,0.40551,-0.28309,-0.28307,-0.283,0.12504,0.38005,-0.027969,0.12511,0.12519,-0.12994,0.30351,-0.002552,-0.33406,-0.48708,0.20163,0.60967,-0.053464,-0.18101,-0.027864,-0.28303,0.83917,0.15049,-0.002491,-0.86968,-0.51262,0.20159,-0.053439,-0.002467,-0.15545,0.099577,0.66065,0.3801,0.2016,-0.002374,-0.46162,0.074002,-0.053458,-0.053415,-0.334,-0.13003,-0.002552,0.099442,0.048561,-0.053378,0.32918,0.96675,0.4311,-0.61465,-0.58907,0.074087,-0.053604,-0.41062,-0.25744,-0.28295,0.04858,0.45661,0.2016,0.15057,-0.2575,0.074038,0.48201,0.40558,0.2016,-0.2575,-0.2065,0.35461,-0.23203,-0.35953,-0.48701,-0.38503,0.78818,0.22707,0.55871,-0.28302,-0.20652,0.50763,0.074033,-0.43609,-0.61454,-0.51257,-0.13009,-0.028054,0.1506,0.81383,0.12507,0.125,-0.053519,-0.12994,0.22725,0.15063,0.68602,-0.053616,-0.4361,-0.66556,-0.385,0.20161,0.074093,0.099583,-0.027913,0.023084,0.40555,0.099454,0.15051,0.099583,-0.13007,0.0485,0.1251,-0.18094,0.048665,0.5077,-0.079093,-0.3341,-0.53812,-0.66557,-0.07899,0.78816,0.38006,0.5077,-0.053348,-0.43601,-0.2066,0.15056,-0.05347,-0.46155,-0.41054,0.3801,0.17607,0.73724,-0.10445,0.17607,0.30353,0.63521,-0.15553,-0.79312,-0.33404,-0.10455,-0.053476,0.17607,0.07416,-0.002399,1.2218,0.40557,0.48219,-1.0227,-0.7167,-0.25763,-0.18102,0.074051,0.023127,0.048616,0.30355,0.048525,-0.1555,-0.027956,0.25259,0.4566,0.5332,-0.15549,-0.46152,-0.56357,0.22704,0.60967,0.30361,-0.61463,-0.3851,0.63518,-0.053506,0.12509,-0.25745,-0.53807,-0.43619,-0.13004,1.1454,0.074087,-0.69113,-0.18105,0.22709,0.8648,-0.30845,-0.2065,0.55852,0.12502,-0.13002,-0.74208,-0.41051,0.71174,0.9414,0.32914,-0.35954,-0.25753,0.15044,-0.0791,-0.028054,-0.51259,-0.28301,0.25257,0.2016,0.20166,-0.20639,-0.002399,0.40553,0.12501,-0.10452,-0.1555,-0.07899,0.3036,-0.078977,-0.053495,0.76282,0.7373,0.22696,-0.18098,-0.46156,-1.0227,-0.66567,0.35461,0.15059,-0.002461,-0.20643,0.099608,0.53307,0.63505,0.12503,-0.28295,0.07413,-0.028011,-0.20649,-0.28297,0.8394,0.35467,0.30348,0.048487,-0.02806,-0.71671,-0.81867,-0.3341,0.12509,0.15059,-0.078886,0.7883,0.60959,-0.002577,0.023047,-0.5125,-0.12996,0.53314,0.099595,-0.25753,-0.43602,0.25267,0.20156,0.12496,0.22702,0.27817,-0.15558,-0.28312,-0.48712,-0.053427,1.8852,0.27818,-0.053537,-0.53816,-1.1503,-0.99723,-0.58913,0.89021,0.30361,-0.027925,-0.12991,0.38018,0.71165,0.38006,0.4311,-0.38504,-0.41051,-0.079008,-0.20653,0.38019,-0.10436,0.15064,0.15045,0.30351,-0.002491,-0.25753,-0.56362,-0.10454,-0.18106,-0.079002,-0.15542,-0.23198,0.17601,-0.10455,1.8596,0.60977,0.43112,-0.23212,-0.58918,-0.6911,-0.23191,-0.078996,0.25255,0.38011,-0.15549,-0.6146,-0.43609,0.099485,0.27811,0.099595,0.074118,1.324,1.1453,-0.46165,-0.69118,-0.5126,-0.74221,0.048536,0.074087,-0.10452,0.048604,0.2527,0.78819,-0.15557,-0.4361,-0.71662,0.099521,0.53314,0.38014,0.32916,-0.23199,-0.283,0.17597,0.048518,-0.18098,-0.56355,-0.66562,0.048512,-0.18103,0.40566,-0.002454,1.3239,0.25252,-0.13008,-0.10449,0.66079,0.099546,-0.10456,-0.43606,-0.46149,-0.48702,0.20152,0.38001,-0.28308,-0.10447,-0.078928,0.074044,0.58417,1.0944,-0.1045,-0.10443,-0.35956,-0.028018,-0.02806,-0.20655,0.074069,0.30362,-0.2066,-0.10449,-0.48706,-0.027846,1.0434,0.7882,0.022974,-0.69124,0.074081,-0.283,0.50766,-0.56364,-0.51257,-0.28298,0.55872,0.35447,-0.1046,-0.18103,-0.76761,-0.15542,1.1964,1.1199,0.17604,-0.76766,-0.10449,0.22698,-0.35961,-0.20647,-0.027931,-0.002491,0.15049,-0.079008,-0.078966,-0.43598,0.074142,-0.079008,0.45662,1.4513,0.17611,-0.35957,-0.4617,-0.51262,-0.28297,0.86495,0.12516,-0.18109,-0.33415,-0.53815,-0.43606,-0.30858,0.43107,0.35463,0.074087,-0.38497,0.32915,0.48205,0.43106,-0.35951,-0.25748,-0.56361,-0.28305,0.68626,1.1454,-0.28297,-0.86967,0.43106,0.048438,-0.28307,-0.89524,-0.41061,0.53309,0.25258,0.71184,-0.38489,-0.25743,-0.053525,0.073953,0.40558,-0.13003,0.048525,0.45664,0.099601,-0.20649,-0.538,-0.23198,-0.10459,0.63515,0.099534,0.074087,-0.028018,0.55866,0.40567,-0.43606,-0.51257,-0.56356,-0.079057,-0.028036,-0.053506,-0.28298,-0.33404,0.58419,1.7576,0.86478,0.43123,-0.71662,-0.61471,-0.43621,-0.3851,-0.41058,-0.13,0.2781,-0.02795,0.15062,-0.002356,-0.12994,0.099461,-0.46161,0.83931
-0.25752,-0.12999,0.32907,0.048555,-0.002423,-0.20642,-0.12996,0.22701,0.12503,0.023023,-0.25754,-0.20652,0.27809,-0.078953,-0.002412,-0.12993,0.023054,0.27801,-0.053506,-0.078977,-0.232,-0.053476,0.20155,-0.002443,-0.053427,-0.20643,0.048555,0.22697,-0.053519,-0.07899,-0.33402,-0.18099,0.3036,0.099583,0.074093,-0.30845,-0.15545,0.25252,0.023005,-0.053495,-0.28303,-0.078972,0.30358,0.074038,-0.053439,-0.18091,-0.10445,0.25249,0.099515,-0.027962,-0.2575,-0.10449,0.32907,0.048555,0.048592,-0.10441,-0.12996,0.25251,-0.053513,-0.078972,-0.28302,-0.18102,0.27808,-0.002443,-0.027931,-0.23196,-0.053439,0.35454,0.023005,-0.079008,-0.33404,-0.15549,0.27809,0.074062,-0.027944,-0.23193,-0.15546,0.43104,0.099503,-0.18101,-0.48705,-0.15548,0.32909,0.074057,-0.10445,-0.1299,-0.053427,0.32902,0.022992,-0.0535,-0.28303,-0.20649,0.3546,0.023041,0.074081,-0.15543,-0.10447,0.43104,0.048525,-0.25753,-0.38506,-0.13,0.32911,0.099595,0.048585,-0.18094,0.023072,0.20152,-0.002503,-0.053495,-0.30855,-0.18101,0.32909,0.04858,-0.002412,-0.12991,0.099583,0.43104,-0.028023,-0.1045,-0.38504,-0.181,0.40561,0.099577,0.04858,-0.078923,-0.12997,0.2015,-0.0535,-0.053476,-0.28302,-0.078996,0.27807,0.048573,-0.10444,-0.23192,-0.12997,0.30353,-0.053506,-0.002479,-0.25752,-0.13001,0.30358,-0.002448,-0.10443,-0.20643,-0.078972,0.22701,0.099534,0.023023,-0.33404,-0.18099,0.32909,0.12506,-0.10445,-0.18092,0.04858,0.43104,0.074002,-0.15551,-0.41054,-0.20649,0.35458,0.023047,-0.027938,-0.12991,-0.053427,0.25251,0.023005,-0.0535,-0.25753,-0.10448,0.25258,0.074062,-0.02795,-0.25745,-0.12995,0.38004,0.023017,-0.027993,-0.30854,-0.027993,0.32908,-0.10446,-0.12994,-0.25741,-0.002412,0.35453,0.12502,-0.002485,-0.30855,-0.18101,0.27808,-0.078959,0.02309,-0.1044,-0.027944,0.38001,-0.002521,-0.027993,-0.33402,-0.232,0.45661,0.099559,-0.00243,-0.18094,-0.10447,0.25251,0.099515,-0.053488,-0.30851,-0.15548,0.2781,-0.002448,-0.002443,-0.23193,0.023065,0.43106,0.022998,-0.15551,-0.38504,-0.2065,0.3036,0.048567,0.023084,-0.23194,0.023059,0.22701,0.12502,-0.079008,-0.30852,-0.07899,0.32908,0.048561,-0.002436,-0.18093,0.074075,0.35454,-0.079026,-0.20652,-0.43602,-0.18097,0.38011,0.099564,-0.002418,-0.20641,-0.02795,0.35452,0.27802,0.12499,-0.51257,-0.02795,0.4056,-0.078953,-0.12993,-0.23192,-0.078972,0.3035,-0.028005,-0.18101,-0.30852,-0.18101,0.53312,0.17606,-0.002405,-0.30843,-0.283,0.07394,0.17603,0.43117,0.04858,-0.30853,0.20154,-0.12999,-0.15549,-0.46151,-0.15548,0.176,-0.002503,-0.053458,-0.33401,0.32908,0.5841,0.38015,-0.027882,-0.43593,-0.20647,0.099454,-0.18108,-0.027974,-0.48709,-0.20652,1.0432,0.15057,-0.25746,-0.48697,-0.027931,0.27798,-0.079033,0.074038,-0.33404,-0.15553,0.3546,-0.027944,-0.10445,0.099657,0.074062,0.3035,0.07402,-0.12999,-0.12996,-0.12998,0.20153,-0.10451,-0.12995,-0.41044,-0.232,1.0177,0.50766,-0.20651,-0.4871,-0.58913,0.35457,0.17603,0.023023,-0.053342,-0.3595,0.073946,0.048469,-0.23204,-0.15547,-0.053446,0.45664,0.17609,-0.23196,0.17618,0.17608,0.63507,0.022961,-0.33407,-0.38498,-0.3085,0.25259,0.22715,-0.053464,-0.48706,-0.38506,0.50751,0.12499,0.02301,-0.38502,-0.15549,0.55864,0.2271,0.55873,-0.053299,-0.30845,0.71162,-0.13013,-0.41063,-0.76766,-0.48706,0.40561,0.58427,0.15068,-0.53804,-0.30856,0.15038,-0.15556,-0.053458,-0.46149,-0.027962,0.68617,0.099564,0.30366,0.27817,-0.028011,0.27798,-0.028011,-0.33405,-0.86964,-0.66563,0.27812,0.50772,0.023121,0.32916,0.15059,0.96676,0.20158,-0.002491,-0.76769,-1.0738,-0.46172,-0.41061,-0.10433,-0.38489,0.074087,0.96662,0.40555,0.074033,-0.41052,-0.23198,0.4822,0.63536,0.6098,-0.078898,-0.33411,0.099326,-0.84435,-0.51263,-0.69111,-0.33399,0.25258,-0.12999,0.66083,0.7119,0.43118,0.50756,-0.58922,-0.23209,-0.84422,-0.23202,0.78822,1.0945,0.12513,-0.99715,-0.41058,-0.13019,0.048396,0.15052,-0.12987,0.27819,0.40565,0.60977,-0.053482,-0.64009,-0.64015,-0.079093,-0.18107,0.50763,0.17614,0.38017,0.58418,-0.53812,-0.3085,-0.33392,0.023054,1.0686,-0.30861,-0.64014,-1.2522,-0.12998,0.43117,0.73728,0.76285,-0.12993,0.30371,-0.002686,-0.71678,-0.13004,-0.43603,0.35465,0.83923,-0.30851,-0.43602,-0.33397,-0.41049,0.3035,0.22704,-0.002461,-0.2575,0.55875,0.66068,0.074081,0.22709,-0.58908,0.94127,-0.1301,-1.1503,-0.56359,-0.64013,0.099619,0.78821,0.38006,0.63514,0.12513,-0.078953,-0.25758,0.074142,-0.078874,-0.20642,-0.2321,0.048402,-0.028005,0.60974,-0.027907,-0.66562,0.20147,0.023023,1.8595,0.27805,-0.4106,-0.5637,-0.76771,-0.86969,0.17628,0.25268,0.15062,0.43116,0.12504,0.02309,-0.028036,-0.25762,-0.002497,0.30361,-0.48696,-0.48705,0.22697,-0.23208,0.71177,1.2219,0.76283,0.76264,-1.1249,-1.2268,-1.0736,-0.078868,0.60963,0.22694,-0.12998,-0.12988,0.55878,0.63521,-0.20669,-0.078984,-1.2266,-0.18095,0.37998,-0.1301,0.12508,-0.33409,-0.027944,0.91576,0.7373,0.25265,-0.38496,-0.28303,0.32899,-0.35959,-0.61462,-0.41054,0.099436,0.099479,1.7066,0.38018,0.86489,-0.12983,-0.7423,-1.8135,-1.635,-0.56352,1.5788,1.6299,0.48219,-0.64004,-1.2012,-1.0227,-0.5127,1.5024,1.8851,0.22726,-0.053495,0.6862,-0.053549,-0.92077,-0.94612,-0.10439,0.15053,0.45648,0.048487,-0.66563,-0.53809,0.17607,0.43122,0.96685,0.76284,-0.002387,0.32896,-0.6402,-0.58918,-0.38508,-0.13002,0.22701,0.12504,-0.078868,0.38027,-0.64012,-0.30863,0.023035,0.8648,0.58425,-0.38517,0.48211,0.15055,-0.74215,-0.92062,-0.078959,0.17598,-0.18102,-0.30855,-0.35957,0.20161,2.2421,0.20165,0.1761,-0.8951,-0.76763,0.02287,-0.18106,-0.43607,-0.94614,-0.53811,0.71154,0.89026,0.38025,-0.23191,-0.18095,0.78813,-0.35965,-0.89521,-0.4871,1.5281,3.2369,1.2984,-1.3034,-2.1195,-1.5584,-0.18114,-1.1503,-1.1502,-0.81864,0.4567,1.4004,1.5789,0.71182,-0.41039,-0.56355,0.48199,0.60954,0.40561,1.0433,-0.027998,-0.48714,-0.56352,-1.0736,-0.81848,-0.053488,0.099394,-0.41069,0.81373,-0.56361,0.38016,0.9157,0.71169,-0.15548,-0.71664,-1.2012,-0.20658,-0.30855,0.074062,0.35458,0.40566,0.86474,1.0688,0.25273,-0.15533,-0.25751,0.20147,-1.0994,-0.35958,0.15059,0.099601,0.78827,-0.20655,-0.33404,-0.64012,-0.51266,1.579,0.60969,-1.2012,-0.71671,0.4822,-0.15558,-0.51267,-0.079033,-0.30846,0.48223,0.53313,0.76283,0.38017,-0.30853,-0.18103,0.22699,-0.10453,-0.232,-0.027852,1.528,0.37986,-0.25763,-0.2574,-0.89513,-0.56363,-0.76771,-0.51269,-0.18101,-0.25753,-0.027815,1.4259,0.53314,0.27814,-0.38503,-0.078972,-0.002577,-0.028036,-0.64014,-0.33396,0.048653,0.86471,-0.053586,0.02309,0.55877,0.43118,0.4565,-0.30861,-0.86972,-1.0736,-0.053439,0.38005,0.35464,-0.181,-0.61459,0.25248,0.83915,0.38013,0.074106,-0.66553,-0.10447,0.099546,0.43115,1.528,-0.81868,-0.51264,0.22704,-0.027944,-0.28297,-0.5635,-0.25753,0.50752,0.15051,0.60976,-0.56361,0.96685,0.099448,0.66067,-0.053476,-1.8899,-1.1247,0.022974,0.38011,0.53312,0.1251,0.048549,0.25254,0.4312,0.25265,-0.76753,-0.25744,0.329,0.4311,0.73722,0.40568,-0.81871,-0.46169,-0.15553,-0.61457,0.074173,0.73729,2.3186,-0.56372,-1.4565,-1.3798,-0.4361,0.53306,1.0689,0.32921,-0.56351,-0.15545,0.176,0.40563,0.2016,-0.38504,-0.28309,0.83926,0.09951,-0.027956,-0.691,-0.53808,0.38011,-0.23205,-0.10447,-0.15551,-0.002485,0.96672,0.25263,-0.027938,-0.56353,-0.6147,-0.28314,0.48216,1.7321,-0.053415,-1.2014,-0.25764,0.71176,0.94142,-0.69108,-0.61465,-0.30864,-0.38509,0.023054,-0.33406,-0.64019,0.38006,2.5483,1.6556,-0.53801,-1.0993,0.32899,-0.15557,-0.25753,-1.6093,-1.1503,0.60957,1.1454,1.1454,-0.15547,-0.43607,0.48211,-0.4106,-0.33406,-0.30861,-0.002503,0.71169,0.45669,1.0944,-0.41045,-0.97166,-0.2321,-0.33409,0.50769,-0.25758,-0.028042,0.5331,0.048543,0.023084,-0.76761,-0.74209,0.53314,1.1963,0.89032,-0.51267,-0.46165,-0.4871,0.17609,-0.002338,-0.61451,-0.25751,0.53304,0.25249,0.43118,-0.18098,0.40566,-0.20656,-0.41058,-0.66563,-0.25752,1.681,1.0432,0.20151,-0.76764,-1.2012,-0.89515,-0.078996,-0.15545,-0.12992,-0.002374,0.32912,1.4769,0.3035,-0.58922,0.023047,0.30361,2.6248,0.048561,-1.0993,-1.4563,-1.1247,0.45654,-0.30862,-0.38508,-0.20644,0.9924,0.78824,0.17607,-0.23199,-0.28302,0.099595,0.53306,0.22702,-0.35962,-0.5381,-0.43602,0.17612,-0.002436,0.35465,0.099626,0.45669,-0.053586,-0.76777,-0.23204,0.35479,1.0689,1.0943,-0.20652,-0.4871,-0.89518,-0.56366,0.15038,0.12499,-0.13001,-0.30848,0.17613,0.17611,0.25263,0.38016,0.15073,0.099577,0.5076,0.22705,0.07394,-0.20637,-0.56358,-0.51273,-0.053476,0.25255,0.38019,0.20166,-0.20663,-0.7167,-0.18099,-0.61462,0.76277,0.38009,-0.35957,0.32923,0.12522,0.048629,0.15048,-0.053568,-0.10453,-0.18106,0.20161,0.81371,0.30361,-0.10453,-0.51253,-0.56353,-0.10452,-0.38503,-0.078941,0.15055,0.32904,0.27802,0.20152,0.40573,-0.18088,-0.20645,-0.41065,0.32904,0.76272,-0.56356,0.17606,-0.079021,0.023065,-0.58906,-0.89511,-0.30856,0.22693,0.022961,0.27816,0.53326,0.30362,0.71172,0.15053,-0.43609,-0.71654,-0.30849,0.22697,0.40558,-0.05347,0.048616,0.12508,-0.30861,-0.35961,-0.46162,-0.79304,-0.053397,1.2728,1.2474,-0.28304,-0.92071,-0.43619,0.32902,-0.053544,-0.283,0.53334,0.15068,0.32909,0.40557,-0.15557,-0.38502,-0.33405,0.38006,0.099424,0.099546,-0.12989,-0.027864,0.20156,-0.38507,-0.23201,0.53324,0.12503,0.43104,-0.028023,-0.53805,-0.64002,-0.07891,0.5076,0.27805,0.17605,-0.053458,-0.20648,0.27804,-0.13001,-0.69111,-0.69118,0.76264,1.5024,0.7628,-0.64011,-0.61455,-0.79313,-0.2066,-0.13,-0.15551,0.30364,0.55872,0.30351,0.099479,-0.078977,-0.4615,-0.41052,0.38011,0.6352,0.43116,-0.15545,-0.35952,-0.2321,-0.20653,0.12508,-0.30856,-0.43616,0.22701,0.63528,0.53326,-0.18095,-0.5126,-0.38517,-0.71671,-0.33407,0.68629,0.8393,0.68621,-0.10447,-0.48708,-0.53809,-0.64014,0.15053,0.048482,0.63521,0.20155,-0.48707,-0.002454,0.91575,0.32915,-0.66554,-0.51255,0.074038,0.12499,-0.002528,-0.53813,0.048525,0.43107,0.3292,0.048634,-0.66553,-0.027864,-0.053573,-0.18115,-0.053519,-0.027956,-0.10452,0.1505,0.2016,-0.12993,0.2017,0.25266,0.4822,0.55864,0.22701,-0.76771,-0.58911,-0.38508,-0.10449,0.12508,0.2016,-0.33398,0.30356,0.048487,0.20154,-0.18099,0.22715,0.68623,0.2016,-0.33402,-0.69109,-0.46162,0.30352,0.27799,0.43114,0.53324,-0.18101,-0.25753,-0.15549,-0.2064,-0.30851,0.3291,0.37999,0.40558,-0.23202,-0.64014,-0.33401,1.2473,1.0179,-0.18103,-0.7931,-0.76764,-0.81871,0.125,0.8392,-0.30856,-0.30853,0.15052,0.53318,-0.078928,-0.2574,1.018,0.68615,-0.10463,-0.56369,-0.6402,-0.53815,-0.15558,0.53325,0.35473,0.71183,0.12516,0.40556,-0.28315,-0.6402,-0.69116,-0.51263,-0.13,0.1251,0.074093,0.35466,0.25263,0.53315,0.32903,-0.10448,-0.30852,-0.23202,0.023059,0.27813,-0.078984,-0.23197,-0.002443,0.073989,0.12502,-0.18103,-0.53809,-0.46165,-0.43616,0.20161,0.96689,1.6047,-0.002418,0.022931,0.40558,-0.92076,-1.1503,-0.7422,-0.028042,0.53314,0.58432,-0.002326,0.023054,0.32909,-0.20656,0.2526,-0.053513,0.048518,0.35461,0.55873,0.58428,-0.33402,-0.38513,-0.53823,-0.92076,-0.28299,-0.078947,0.40565,-0.002491,0.12507,0.1251,0.20166,0.43118,0.43107,0.48208,-0.41059,-0.33403,-0.18104,0.48217,0.12508,-0.12998,-0.41051,-0.30851,-0.002552,-0.20663,-0.41058,-0.33401,-0.07899,0.89024,0.50768,-0.078947,-0.25746,0.07416,1.1198,0.099466,-0.43612,-0.64013,-0.58916,-0.079033,0.073995,-0.64009,0.27831,0.40577,0.50762,0.25251,-0.10455,-0.13004,-0.13002,-0.23205,-0.002467,0.04858,0.04861,0.20169,0.2271,-0.079075,-0.028023,-0.58914,-0.33406,0.25261,0.40566,0.22715,0.43126,0.099613,0.40558,-0.30866,-1.0483,-0.99727,-0.69115,-0.053476,0.20156,0.17611,0.40572,0.63526,1.0943,0.53311,-0.28305,-0.89518,-0.69114,0.35464,0.32917,-0.05347,-0.053476,-0.33401,-0.43607,-0.028085,0.48219,-0.078984,-0.002418,0.17606,0.15057,-0.33409,-0.28302,-0.46157,-0.18108,0.35454,0.12508,-0.027913,0.20161,0.074013,-0.18098,0.38013,0.17617,0.32932,0.60973,-0.61477,-0.97182,-0.76772,-0.18103,0.3291,0.6862,-0.18094,-0.38494,-0.15547,0.15048,0.50759,-0.053525,-0.51254,-0.15546,0.048549,0.50771,0.53318,-0.002443,-0.46152,0.099503,-0.13008,-0.002472,-0.28301,-0.002472,-0.2576,0.40561,-0.02792,-0.078837,0.099588,0.17591,0.60961,0.83925,-0.69116,-0.92068,-0.33398,0.1506,0.2526,-0.43598,0.55881,0.35461,-0.002613,-0.48717,-0.28305,0.58417,0.022998,-0.12995,0.40573,-0.15548,-0.20649,0.048518,-0.002503,-0.41055,0.023035,0.3036,0.30361,-0.053464,-0.23204,-0.41054,-0.10444,-0.00251,-0.46167,0.30359,0.55876,0.43115,0.43107,0.099559,-0.25749,-0.51254,-0.053476,-0.18099,-0.33405,-0.28308,0.074038,-0.027944,-0.053476,0.68615,1.0944,-0.15547,0.048616,-0.28306,-0.33412,-0.33408,-0.027969,-0.23203,0.38011,0.48213,0.12507,-0.053415,-0.028011,-0.10453,-0.28305,-0.30853,-0.002454,0.30366,0.12509,0.099528,0.1506,0.023157,-0.30846,-0.053537,-0.028114,0.048494,0.71179,-0.23203,-0.5382,-0.33411,0.38016,1.222,0.099619,-0.51263,-0.3852,-0.43617,-0.28302,-0.10445,0.27809,0.20162,-0.078923,-0.1299,0.20166,0.83932,0.2525,0.25251,-0.23209,-0.43609,-0.15553,-0.002454,-0.12993,-0.58904,-0.28295,1.0433,-0.028096,-0.002485,-0.002405,0.074038,0.17603,-0.028005,-0.33404,-0.002418,-0.20648,0.048518,0.43107,-0.0535,-0.35956,-0.28306,-0.053476,0.66076,0.27818,0.50776,0.17614,-0.1556,-0.079093,-0.35959,-0.25749,-0.10447,0.099552,0.17606,-0.23205,-0.38497,-0.078935,0.32906,0.45664,0.22712,-0.13001,-0.51259,-0.002448,-0.15545,-0.181,-0.51257,0.68627,0.27804,0.099479,0.022998,0.12509,-0.15553,0.15059,0.43116,-0.43607,-0.3595,-0.38497,-0.33412,-0.10461,0.27806,0.35469,0.023096,0.50768,-0.18103,-0.002418,0.2527,-0.38503,-0.079081,0.32893,-0.25746,-0.41056,-0.38505,-0.027944,0.60972,0.2526,0.12518,-0.487,-0.053458,0.12493,0.38002,0.27811,-0.15552,-0.13005,-0.2575,-0.51254,-0.64004,-0.5125,0.22705,0.66062,0.17604,0.91583,-0.41058,-0.10452,-0.053513,-0.181,-0.41052,0.58428,-0.002454,-0.33413,-0.18102,-0.15546,-0.51258,0.074013,0.32903,0.63526,0.48227,-0.053402,-0.46162,-0.51269,-0.18107,0.48226,-0.25749,-0.18098,-0.079039,0.38016,-0.13003,0.12509,0.25248,-0.56365,-0.15549,0.35466,0.023072,0.048531,0.02295,-0.12998,1.0435,-0.05339,-0.61462,-0.51268,-0.027974,-0.181,-0.30856,0.53311,0.58412,0.25258,-0.43601,-0.10444,-0.002443,-0.028011,0.15057,0.15061,-0.38505,-0.28306,0.023005,0.048536,0.099626,0.40566,0.17606,0.17605,-0.283,-0.41051,-0.28306,0.022974,-0.002503,0.099577,0.12507,0.25266,0.53316,-0.028047,0.023096,0.099657,-0.46159,-0.10452,-0.33412,-0.23205,-0.15548,-0.2065,-0.15553,0.66074,-0.2831,0.12506,-0.002405,1.0689,0.91579,-0.4871,-0.84414,-0.18097,-0.20658,-0.13011,-0.28308,-0.28306,0.12509,0.50767,0.30356,-0.38499,0.25274,0.27822,0.27805,0.048427,0.12498,-0.28302,-0.64011,-0.41058,-0.4361,1.1199,0.38016,0.20164,-0.10453,-0.15563,-0.43614,-0.53809,-0.56359,-0.51265,1.0434,0.43118,0.2782,0.22717,0.12505,-0.10459,-0.079008,-0.51258,0.099588,-0.10453,0.074008,-0.15545,-0.20647,0.02309,0.17609,-0.079057,-0.002516,-0.48712,-0.053506,0.89029,1.7066,0.58422,-0.81869,-0.9972,-0.3596,-0.46169,-0.76766,-0.38508,-0.078996,0.35459,0.66072,0.76283,0.50776,-0.12994,-0.23204,-0.23211,0.22708,0.40567,-0.74218,-0.53821,0.20159,0.30367,-0.2064,-0.64005,-0.4106,0.27803,-0.079014,0.76277,-0.28308,-0.28307,0.048482,-0.07899,-0.078959,0.2782,1.2219,0.48211,-0.30856,-0.6401,-0.41054,-0.43613,0.40556,-0.078984,-0.12992,-0.12992,0.023041,0.07394,-0.10456,0.17614,0.023133,-0.027944,0.20152,-0.1555,-0.078972,-0.33399,-0.10448,0.2015,-0.078996,0.22708,0.32914,0.15057,0.32906,-0.46156,-0.35947,-0.43598,-0.46163,0.2015,0.1761,0.63522,0.60972,0.50771,-0.2321,-0.7677,-0.79319,-0.078928,-0.20649,0.074038,0.2781,0.76275,-0.078977,-0.027969,-0.002497,-0.53808,-0.61455,0.32918,0.63517,-0.053519,-0.053482,-0.181,-0.28307,0.048506,0.38009,-0.053421,0.099626,-0.43604,-0.53809,-0.053555,0.023047,0.45668,0.023047,-0.15553,-0.002534,-0.002472,-0.25746,0.023127,0.76277,-0.1301,-0.35962,-0.43608,-0.30855,0.32912,0.48213,0.25263,-0.078935,-0.28297,-0.078984,-0.028023,-0.18102,-0.12997,-0.283,0.17615,-0.10455,-0.10452,1.2984,-0.20647,-0.23204,0.17595,0.20152,-0.12999,-1.0227,-0.41055,0.20153,0.20164,-0.002363,0.25269,0.12505,0.22697,-0.28308,0.074008,-0.43604,-0.002418,1.1198,-0.002443,-0.33402,-0.25747,-0.41055,0.099448,-0.002503,-0.05347,-0.002443,-0.15549,0.50765,-0.232,-0.334,-0.61455,-0.18098,0.45657,0.099466,-0.23203,-0.41058,-0.33404,0.71177,0.12508,0.55876,0.53332,0.048555,-0.41069,-0.41063,-0.20653,-0.64014,-0.41054,0.22707,0.15054,-0.053446,0.43122,0.66076,0.17603,-0.30856,-0.35961,-0.4361,-0.28299,0.17607,-0.078996,0.023029,0.76288,0.76282,-0.10455,-0.64018,-0.81873,-0.66569,-0.079088,0.48214,0.023041,0.40577,0.53334,0.22713,-0.15558,-0.46162,-0.23205,-0.002448,-0.002448,0.27803,0.17607,-0.15543,0.12514,-0.002436,-0.028047,-0.28308,-0.20655,-0.3086,-0.181,1.3495,-0.38504,-0.61457,-0.53801,-0.20649,0.50757,0.048506,0.22701,-0.46158,-0.23201,0.40561,0.099588,0.17612,-0.25748,-0.002467,0.38007,0.023047,-0.25753,0.30368,-0.23202,-0.078996,-0.33403,-0.38503,-0.30846,0.32917,0.38004,-0.25761,-0.30856,-0.13001,0.2271,0.86472,0.25263,-0.35951,-0.33396,-0.283,-0.28316,0.27805,0.099534,0.94135,0.25263,-0.25752,-0.84414,-0.35951,-0.43604,-0.002485,0.38005,-0.15557,-0.12999,-0.002405,-0.25752,0.40565,0.074087,0.76279,-0.48697,-0.25751,-0.053622,0.35456,0.048512,-0.53811,-0.48708,0.66074,-0.002423,-0.15546,-0.33397,-0.38504,-0.053544,0.12502,0.43115,0.35462,0.71176,-0.002503,0.09957,-0.38505,-0.53805,-1.0483,-0.53824,0.074075,1.0689,0.099564,0.48219,-0.13009,-0.64014,-0.56354,-0.38498,-0.20646,0.17601,0.35461,0.15057,0.4822,0.20166,0.09954,0.023072,-0.18094,-0.35948,0.17609,0.15045,0.048512,0.20159,-0.20648,-0.43605,-0.18098,-0.18098,0.53323,0.17612,-0.20658,-0.1301,-0.18105,-0.002467,0.12511,-0.30853,0.63518,0.2271,0.38022,0.43126,-0.66564,-0.46172,-0.48719,0.27815,-0.6911,0.023041,0.25256,-0.078953,-0.25746,0.30371,1.0944,0.35453,-0.20657,-0.25756,-0.79312,-0.56366,0.023059,0.099588,0.3547,-0.18096,-0.23198,0.55859,0.022961,-0.1045,-0.10451,0.22707,0.43108,-0.28302,-0.28297,-0.30846,1.273,0.43111,-0.53817,-0.46164,-0.2575,-0.20649,-0.028005,-0.13002,-0.181,-0.30845,0.17614,0.81368,0.12501,-0.25756,-0.48708,-0.20648,0.17604,0.78825,0.4822,-0.2319,-0.46158,0.073928,0.099521,-0.43614,-0.76766,-0.385,0.99233,0.73725,0.3801,-0.48706,-0.74216,0.32907,0.27808,0.17609,-0.30851,-0.43605,0.074044,0.60972,-0.20649,-0.53802,-0.18102,0.25246,-0.10452,-0.027993,-0.334,1.0944,0.38008,0.099583,-0.23196,-0.81857,-0.6146,0.073917,-0.028011,0.50766,0.02301,-0.25753,0.53314,0.20168,-0.053427,-0.53803,-0.43607,-0.15561,0.4056,0.12504,-0.02798,-0.41061,0.023041,-0.078928,0.91583,-0.10438,0.17614,-0.053629,-0.23209,-0.33405,-0.69111,-0.58911,0.58417,0.30361,0.22711,0.30371,0.89031,0.48207,-0.48712,-0.18108,-0.25746,0.023059,-0.079045,-0.30863,0.17609,-0.5635,-0.18092,-0.028042,-0.15554,0.17611,0.023059,-0.079008,0.58414,-0.078947,-0.20651,-0.487,0.66077,0.60962,-0.002503,0.2781,-0.23201,-0.76764,-0.028042,-0.28302,-0.15548,-0.18094,-0.078935,0.25252,-0.10456,-0.23205,-0.10447,0.91581,0.96679,0.22707,-0.25753,-0.61455,-0.35949,0.17602,-0.23206,-0.23202,-0.283,0.099577,0.25255,0.048561,-0.33403,-0.181,0.71164,0.78814,-0.46163,-0.58911,0.63535,0.40582,-0.28306,-0.51263,-0.43609,-0.10444,0.2271,0.45649,-0.15553,-0.28304,-0.23199,-0.23201,0.38014,0.074087,-0.078935,-0.053427,0.45661,0.38001,0.099552,-0.12995,-0.84416,0.32915,0.38013,-0.33409,-0.20651,-0.48705,-0.15546,0.53314,-0.027993,-0.053446,-0.71663,-0.33408,0.63514,0.6862,0.25264,-0.66553,-0.18098,-0.002552,-0.30868,0.27812,-0.15539,0.3037,0.76275,-0.28301,0.15058,-0.51257,-0.4616,0.12489,-0.13005,0.048585,-0.56358,-0.30855,0.55864,0.81378,0.48223,-0.23193,-0.15549,-0.053598,-0.23208,-0.28308,-0.18094,0.17612,1.1198,0.86483,-0.33402,-0.53802,-0.53814,-0.079186,-0.28311,-0.43615,0.048616,0.048634,-0.078977,-0.053439,0.048561,-0.027913,-0.078966,0.73712,0.22702,0.53321,-0.1299,-0.20648,-0.028023,-0.38506,-0.1045,-0.283,-0.053433,-0.15567,-0.13004,0.3292,1.324,-0.28303,-0.18111,-0.33404,-0.56362,-0.30853,-0.33402,0.25253,-0.078977,-0.05347,-0.027931,-0.053451,0.35458,0.71173,0.60971,-0.23197,-0.51258,0.022943,-0.028018,-0.20655,-0.69111,-0.48705,0.76278,0.09957,-0.078966,-0.23194,-0.079008,0.17597,0.25251,0.12509,0.099693,-0.334,0.60968,0.48216,-0.35961,-0.89515,-0.61459,-0.0791,0.048512,0.8903,0.20165,0.074081,0.125,-0.3086,-0.48708,-0.2064,-0.07891,0.38006,0.099497,-0.002454,-0.15548,-0.12995,0.38012,0.22712,0.25263,-0.35951,-0.30855,0.38003,-0.15557,-0.23204,-0.30855,0.35468,0.38011,-0.18102,0.12514,-0.35946,-0.053464,-0.10461,-0.28311,0.40568,0.50773,-0.30854,-0.10453,-0.28306,-0.41053,-0.33398,0.20158,0.81364,-0.15548,0.099601,-0.51258,-0.078972,0.63511,0.48219,0.074081,0.048555,-0.4361,-0.02806,-0.38503,-0.20646,-0.46151,-0.46156,0.32904,0.27808,0.45666,0.38019,-0.15551,0.30351,-0.10449,0.30364,-0.38507,-0.48713,0.048487,0.3547,0.25267,-0.436,-0.33405,0.45651,0.022992,0.048536,-0.69112,-0.23201,0.96681,0.12512,-0.20652,-0.74204,-0.027913,0.27798,0.15052,-0.38513,-0.1555,0.20159,0.25254,-0.078996,0.27817,-0.002369,0.17612,0.15048,-0.38506,-0.28303,-0.6401,0.35461,0.94127,0.63522,-0.53812,-0.89511,0.048561,0.50756,-0.002521,-0.20652,-0.48708,-0.002472,0.45661,0.25254,-0.18093,-0.53798,0.45674,0.50757,-0.15559,-0.38511,-0.18099,-0.18096,0.27805,1.1199,-0.1555,0.35476,-0.078977,0.022827,-0.48713,-0.76766,-0.89515,-0.33404,0.38011,0.3547,0.50776,0.35471,0.20158,0.55851,-0.028042,-0.18102,-0.61462,-0.38508,0.17604,0.20163,0.30369,-0.20641,-0.25746,0.50759,0.27806,-0.20656,-0.81866,-0.41059,0.22702,-0.053488,-0.002418,0.63532,0.20163,0.50756,-0.13005,-0.23208,-0.74214,-0.43606,0.27806,0.32917,1.5536,-0.25745,-0.43609,-0.079118,-0.58919,-0.56359,-0.41054,0.27811,0.60967,0.20164,0.048598,-0.25744,-0.28303,0.048378,-0.079033,0.38016,0.7373,-0.20652,0.22707,-0.30854,-0.69113,-0.94612,-0.41052,0.43103,0.22701,0.35462,-0.334,0.048604,0.58412,0.074057,0.27813,-0.12991,-0.002448,0.27802,0.074087,0.074044,-0.56361,0.022998,-0.23208,0.83928,-0.33403,-0.41044,-0.46145,0.58412,-0.13012,-0.28311,-0.28309,-0.053525,0.38011,-0.027938,0.15071,0.3803,0.1506,0.5075,-0.028018,-0.18103,-0.51259,-0.079008,0.53311,0.25261,-0.053427,-0.51253,-0.53805,0.5076,0.58421,0.32917,-0.64011,-0.81872,0.30355,-0.13007,-0.1555,-0.078928,0.15059,0.5842,0.40563,-0.28307,-0.12994,-0.35949,0.50763,-0.002448,-0.027956,-0.18097,-0.15549,0.38001,0.27803,-0.10445,-0.5381,-0.41057,-0.079008,0.4567,0.35467,-0.078892,0.1506,-0.028109,0.048487,0.1251,0.023152,-0.23204,0.15044,-0.69119,0.50771,-0.053384,0.20164,0.71164,-0.41061,-0.30858,-0.56361,-0.23204,0.50765,0.45666,0.15063,-0.28288,-0.002399,0.40553,-0.028078,-0.078996,-0.51254,-0.13006,0.15056,0.22718,-0.33395,-0.56355,-0.10449,0.7881,0.81372,0.048518,-0.51258,-0.4106,0.022992,0.20159,-0.15542,-0.58903,-0.25753,0.58406,0.73723,0.27811,-0.30851,-0.38505,-0.002552,0.048555,-0.33403,0.099699,-0.18099,0.40553,0.27812,0.12504,-0.23203,-0.38508,0.17598,0.099546,0.22715,-0.12986,0.12512,0.048531,-0.3086,-0.35966,0.38014,0.5332,0.125,-0.56362,-0.51251,-0.46145,0.22715,0.83912,0.45659,-0.053537,-0.53808,-0.30853,0.22705,0.023065,-0.053439,-0.078904,0.25266,0.4821,0.22705,-0.41058,-0.66564,-0.027956,0.66069,-0.46165,0.15059,-0.027864,-0.43601,0.099491,-0.33413,-0.13008,-0.46157,-0.43602,0.78824,0.68622,0.4567,-0.1299,-0.027895,0.02295,0.15049,-0.28303,-0.48702,-0.18103,0.099503,-0.002454,0.17609,-0.002394,-0.25753,0.27795,0.30356,0.68617,-0.20642,0.30368,0.71168,-0.38509,-0.51259,-0.86961,-0.38506,-0.30863,-0.079021,0.86482,0.099637,0.099577,0.22703,0.25261,-0.35954,-0.66556,-0.25752,0.78808,0.89021,0.048622,-1.2012,-0.002472,1.0177,0.17606,0.02309,-0.56354,-0.5126,0.048463,0.099515,0.099528,-0.43607,0.35462,0.66067,0.074026,-0.20647,-0.30841,-0.25746,0.27803,-0.10457,0.50766,0.48211,-0.12995,0.022992,-0.30858,-0.33404,0.099699,0.074057,0.32902,0.48213,-0.28309,-0.64012,-0.48706,0.20154,0.25262,0.22708,0.40566,0.38015,0.66062,-0.33401,-0.41047,-0.48699,-0.46157,0.53307,-0.13009,-0.56361,-0.35947,0.99238,1.2218,0.22702,-0.3851,-0.99721,-0.13005,0.38007,-0.00243,0.074106,-0.15541,-0.20649,0.40551,0.073984,0.35467,0.099644,-0.002423,0.048494,-0.25759,-0.12999,-0.25743,-0.18095,0.073953,0.32907,-0.10449,-0.30849,-0.053495,0.48211,0.68626,-0.23197,-0.69105,-0.20648,0.55853,0.15041,0.12499,-0.20646,-0.33398,0.89035,0.048598,-0.48708,-0.74211,-0.43607,0.27803,0.38004,0.63514,-0.4871,-0.4616,0.71175,0.4822,1.1965,-0.35948,-0.58914,-0.15565,-0.6402,-0.12999,0.023108,0.15059,0.40561,-0.002467,-0.20647,-0.23194,0.35467,0.66055,-0.38511,-0.053446,-0.25751,0.45669,0.40559,0.50767,-0.43603,-1.0226,-0.64009,0.22699,-0.38517,0.55869,0.22711,0.22705,0.68615,-0.15554,-0.10444,-0.053348,0.15062,0.12499,-0.35964,-0.46159,-0.53807,-0.15551,1.1708,0.27808,-0.027931,-0.18089,-0.53804,0.048433,-0.13007,0.12501,-0.23201,-0.28298,0.32913,0.45667,0.17611,-0.18093,0.27811,0.35448,0.022937,-0.20653,-0.12988,0.25262,0.15053,-0.35957,-0.33405,-0.56351,-0.20651,0.63514,0.81373,-0.30855,-0.6656,0.12502,0.71166,0.048536,-0.23199,-0.385,-0.07891,0.25254,0.53315,0.15056,0.15055,-0.078984,0.22701,-0.15548,-0.18098,-0.20643,-0.20644,0.227,0.1506,0.32917,-0.30852,0.023005,0.07394,0.66066,-0.3086,-0.078879,-0.3085,-0.028042,-0.002534,0.15054,0.20161,-0.33401,0.048536,0.074069,-0.25743,-0.20644,0.12508,0.32907,-0.07907,1.3494,0.58421,-0.43616,-0.5892,-0.48708,-0.18093,-0.5125,-0.002418,0.22701,0.073977,0.023047,0.04861,0.15057,0.25256,-0.23197,0.023072,-0.02792,-0.078984,0.71162,0.125,0.099552,-0.02792,-0.3851,0.45658,0.20158,-0.078923,-0.48693,-0.81859,-0.28309,0.3291,-0.13004,-0.13001,0.71165,0.73711,0.63522,-0.33398,-0.30843,-0.20647,0.58412,-0.1301,0.023059,-0.28298,-0.41057,0.048487,-0.13002,-0.027938,-0.30846,-0.12998,0.38001,0.48211,0.55872,-0.28299,0.023023,0.20157,-0.1555,-0.2575,-0.43597,-0.25746,0.4055,0.43101,-0.10455,-0.64006,-0.12992,0.27808,0.20161,-0.00243,0.20172,0.32916,0.30349,0.17593,-0.028042,-0.35947,-0.23198,-0.002516,-0.10449,-0.078947,0.023176,-0.053421,0.25253,0.073977,0.17604,-0.61465,-0.027962,0.1505,0.81376,0.3037,0.023157,-0.41051,-0.25764,-0.28316,-0.23211,-0.053451,-0.23204,0.25258,0.023072,-0.027895,-0.027834,0.048629,0.4821,0.125,-0.079039,-0.23202,-0.20656,0.27806,0.35465,-0.35952,-0.79306,-0.30847,0.55858,0.96668,0.074051,-0.18101,-0.33407,-0.13002,-0.15548,-0.15548,-0.25744,-0.10446,0.35457,0.38011
-0.92065,-0.20649,0.12505,-0.053464,0.04858,-0.20645,0.3036,0.25251,0.099534,-0.35954,-0.35954,0.074038,0.4311,-0.078972,-0.12996,-0.25744,0.048555,0.22701,0.099515,-0.1045,-0.35953,-0.20648,0.38013,0.1761,-0.15546,-0.20646,-0.02798,0.30352,-0.002497,-0.10447,-0.76763,-0.20651,0.38009,-0.05347,-0.12993,-0.1044,0.15059,0.43103,0.35458,-0.41057,-0.6146,-0.10448,0.32909,-0.053464,-0.10445,-0.35946,-0.10447,0.32905,0.22707,0.17607,-0.71663,-0.18103,0.30357,0.12509,-0.053421,-0.12989,0.22712,0.27802,-0.079033,0.40561,-0.64011,-0.2065,0.2271,0.048567,-0.10444,-0.10441,-0.053476,0.278,0.27806,-0.28302,-0.53805,0.048561,0.35458,0.023054,0.048592,-0.1299,0.023072,0.27803,0.099521,-0.002491,-0.33404,-0.2065,0.20157,-0.002454,-0.002405,-0.38498,-0.23199,0.38005,0.099534,-0.10449,-0.23203,-0.053495,0.3036,-0.053458,0.099613,-0.41048,-0.10448,0.329,0.27806,-0.43608,-0.51256,-0.15548,0.30361,0.25262,0.099588,-0.23196,0.09957,0.176,-0.1045,-0.51258,-0.43607,-0.053476,0.3036,0.15058,0.20161,-0.43599,-0.12996,0.176,-0.028018,-0.053488,-0.181,-0.13001,0.32908,0.1251,-0.12994,-0.28296,-0.10446,0.22702,0.0485,-0.053506,-0.33402,-0.15549,0.32909,0.048585,0.023084,-0.20645,-0.078959,0.30352,0.12502,-0.2065,-0.28301,-0.078984,0.35459,0.04858,-0.02792,-0.15543,-0.15547,0.32903,0.074008,-0.15551,-0.35953,-0.02798,0.22707,0.048585,0.023084,-0.12993,-0.078959,0.3035,-0.053513,-0.12999,-0.28302,-0.15549,0.35461,0.074057,-0.053439,-0.18094,-0.053464,0.32902,-0.053506,-0.10449,-0.35954,-0.10447,0.38011,0.2271,-0.002436,-0.30846,-0.18098,0.27803,-0.0535,-0.078996,-0.33406,-0.13,0.2781,0.048561,-0.078928,-0.23196,0.048549,0.32902,-0.002479,0.43113,-0.89517,-0.28303,0.3291,0.12509,0.45669,-0.58902,-0.078984,0.329,0.22704,-0.002472,-0.23201,-0.078966,0.30359,-0.027962,-0.3085,-0.38499,-0.18098,0.15049,-0.027987,-0.10448,-0.35953,-0.12998,0.3801,0.074062,-0.002436,-0.23196,-0.078953,0.27802,0.074026,-0.13001,-0.38505,-0.2065,0.43111,0.12507,-0.10444,-0.23193,0.023084,0.25251,0.22704,-0.43608,-0.41055,-0.181,0.35461,0.17607,0.12509,-0.18094,-0.002443,0.35454,-0.002503,-0.20652,-0.43604,-0.33401,0.3291,0.15057,0.074075,-0.25745,-0.053464,0.27803,-0.053476,-0.02798,-0.43606,-0.25752,0.30359,0.09957,0.048573,-0.23193,-0.10445,0.38004,0.12502,-0.18101,-0.41054,-0.078977,0.48212,0.12505,-0.027931,-0.58901,-0.20647,0.20149,0.27805,-0.13002,-0.20651,-0.078984,0.3036,0.17608,-0.027938,-0.28296,-0.12998,0.176,-0.002497,-0.078972,-0.33401,-0.18099,0.30358,0.09957,-0.002443,-0.20645,-0.027956,0.22699,-0.00251,-0.078972,-0.2575,-0.078972,0.30357,0.099564,-0.15546,-0.35945,-0.12994,0.32902,-0.00251,-0.027998,-0.25752,-0.078972,0.3546,0.099564,-0.10445,-0.20643,-0.12996,0.30353,0.074013,-0.23203,-0.33403,-0.12998,0.38011,0.048567,-0.053446,-0.18094,-0.027956,0.32902,0.27806,0.02301,-0.41056,-0.25752,0.17607,-0.00243,0.048604,-0.18092,-0.10447,0.25249,-0.002497,-0.13,-0.33402,-0.078977,0.45661,-0.002461,-0.053446,-0.25743,0.04858,0.32902,0.022986,0.15054,-0.35954,-0.23202,0.20158,-0.00243,0.023096,-0.35944,0.17609,0.30352,-0.13005,-0.13001,-0.48705,-0.232,0.53312,0.023047,0.048592,-0.053384,-0.002436,0.278,0.048494,-0.20652,-0.41054,-0.30852,0.25259,0.22712,0.023084,-0.23193,-0.18099,0.20148,-0.053531,0.25257,-0.23201,0.17608,0.22705,-0.053482,0.40572,-0.43595,-0.15547,0.35452,-0.053562,-0.20654,-0.53807,0.048525,-0.028023,-0.002454,0.099608,-0.10439,-0.12995,0.53312,0.15058,0.20155,-0.33407,-0.053488,0.55858,-0.20652,-0.10444,-0.69099,-0.41049,0.35457,0.2015,-0.15551,-0.30852,-0.232,0.4056,0.40561,0.048525,-0.30844,-0.23193,0.22705,-0.027987,-0.002472,-0.30851,-0.1045,0.66064,0.3546,-0.10447,-0.027871,-0.181,0.20148,-0.002485,-0.07899,-0.33399,-0.61464,0.6352,-0.027956,0.17612,0.12514,-0.002418,-0.00257,-0.13005,-0.20656,-0.58912,-0.28301,0.63517,0.30361,0.023108,-0.35946,-0.027931,0.8136,0.32905,0.22711,0.023176,-0.64013,-0.28312,-0.51269,-0.41061,-0.58901,-0.20641,0.83927,1.2219,-0.07899,-0.41058,-0.30854,0.17597,-0.18106,-0.23204,-0.5125,-0.027956,0.4055,0.30352,0.20153,0.12511,-0.12992,0.35465,0.048647,0.32919,-0.58895,-0.027956,0.22697,-0.10457,-0.64011,-0.64011,-0.13001,0.43106,0.12504,-0.053433,-0.30846,-0.053409,0.89015,-0.1045,-0.20655,-0.61458,-0.33407,0.60962,0.15052,0.48228,-0.027791,-0.33401,0.02295,-0.43616,-0.20652,0.17605,0.38013,0.15054,-0.3085,-0.28297,-0.79305,0.32914,0.53309,-0.079033,-0.13004,-0.6146,-0.5381,0.17609,0.58415,1.1964,0.20174,-0.23198,-0.079155,-0.61467,-1.0227,-1.0993,-0.12998,0.50766,1.1709,1.1965,0.15067,-0.053519,-0.64029,-0.23207,-0.48721,-0.64009,-0.23199,0.63518,0.17609,-0.13001,-0.25748,0.48221,0.55859,-0.002461,0.099534,-0.12994,-0.56355,-0.43613,-0.43613,0.38017,0.12521,0.66079,1.2473,-0.66569,-1.0993,-1.1503,-0.25753,0.38016,-0.053476,-0.10452,0.60977,0.38011,0.86467,0.68619,-0.7932,0.048555,-0.25756,0.86483,-0.05339,-0.41051,-0.81858,-0.89523,0.12495,0.38004,-0.10462,-0.56356,0.81383,1.5025,0.2781,-0.51261,-0.81859,-0.41055,0.25255,-0.18101,0.25264,-0.38511,0.63531,0.38001,-0.12999,0.63526,-0.38502,-0.25748,0.6096,-0.61475,-0.43615,-1.6858,-1.0227,1.2219,0.58419,0.68625,0.27817,-0.43604,0.15045,-0.002528,-0.078977,-0.56359,-0.6401,0.45659,0.43116,0.58425,0.4313,-0.48708,0.63506,0.12507,-0.25751,-0.71666,-1.6349,0.50762,-0.078935,1.7066,0.023194,0.25266,-0.41078,-0.81891,-1.5839,-1.0228,-0.51258,1.5535,1.5534,0.71187,0.50784,0.63528,-0.28315,-0.53827,-0.53826,0.20172,0.32929,0.83922,-0.079033,-1.2013,-1.4052,-0.41055,0.58405,0.60959,0.60977,-0.61455,-0.92072,0.76272,-0.30849,1.7066,-0.078898,-0.10452,-0.13022,0.63501,0.58416,-0.053378,-1.5328,-1.0737,-0.5125,-1.1248,-0.51252,0.25264,2.3697,2.1656,0.81374,-1.0484,-1.3034,-0.48735,-0.76761,0.81389,0.38027,-0.2065,0.073953,-0.30853,0.1507,-0.078947,0.45658,0.78821,-0.7932,-0.74222,-0.15536,1.1455,1.2474,-0.48713,-0.23204,-1.788,-1.4564,-0.23222,-0.30854,-0.12997,0.20161,0.68629,1.2729,0.76263,0.73718,3.1096,0.22719,-1.0737,-1.1248,-1.227,-1.5584,0.50776,-0.23216,0.17609,-0.43598,-0.38501,-0.66566,0.15053,0.43115,0.94127,0.40565,0.22713,1.2982,0.76267,-0.64006,-1.0737,0.022931,-0.46159,-0.94622,-0.12992,0.5079,1.1965,1.0686,-0.71674,0.40563,-1.5329,-1.5584,-0.30858,-0.10447,1.7577,0.43129,-0.71663,-0.56376,-0.64024,-0.38521,-0.48716,1.0178,2.1146,1.273,1.222,-0.6144,-1.4052,-0.51284,-0.58927,-0.53818,-0.51254,-0.53801,-0.28294,0.099668,0.9413,-0.25746,0.45661,0.022791,0.50755,0.91584,0.2271,0.27819,-0.33407,-0.69115,-1.2013,-0.74208,0.27817,1.6554,0.45665,0.20165,-0.51267,-0.81882,-0.48719,0.35462,1.0179,-0.41039,-0.41048,0.55859,0.20171,-0.9461,-0.9462,0.15062,-0.38517,0.099521,0.20145,-0.13004,0.45667,1.9104,2.5481,0.68606,-1.3033,-2.2469,-1.7878,-1.2521,-0.5891,-0.5124,0.25263,1.8849,0.78817,1.3239,0.35456,0.50764,-1.0484,-0.53811,0.25262,-0.30849,0.32918,-0.20667,0.2271,-0.28293,-0.691,0.20153,-0.20658,0.2016,0.58424,0.60976,0.86489,0.81363,-0.84439,-0.84431,-1.992,-0.61462,0.48214,1.0434,0.22717,-0.71645,-0.53813,0.99221,0.40568,1.4004,-0.74223,-0.002552,0.58406,0.048512,-0.64012,-1.7623,-0.5635,1.4513,1.4258,0.50779,-1.1757,-1.3034,-0.053592,-0.48718,0.6608,0.20183,-0.12984,0.45651,0.12505,0.12512,-0.30858,-0.30877,-0.30869,-0.81876,-0.79316,-0.58897,0.96692,2.1912,0.83919,-0.10455,-1.0737,-0.30854,0.022913,-0.053446,0.048647,-0.79305,0.074185,0.073989,0.43106,-0.10451,-0.69118,-0.69125,1.0176,1.1709,0.73723,-0.41048,-0.7167,0.27798,-0.28312,0.099613,-0.027773,-0.89514,-0.20655,0.38016,1.0944,0.35469,0.099497,-0.13001,-0.28302,-0.02798,-0.79318,-0.25753,0.30348,0.20151,0.81371,0.94132,-0.84418,-0.20661,0.1762,0.63548,-1.4052,-1.1757,-0.5382,0.17599,0.2781,0.22707,0.60963,1.3747,0.86477,0.023065,-0.94614,-1.1248,-0.028054,0.50759,0.25278,0.50773,0.50772,-0.18113,-0.35959,-0.84421,-1.6604,0.81383,1.681,0.048561,-0.97169,-0.2319,0.3547,1.8339,-0.4872,-1.1247,-0.79319,0.12491,0.89,0.35453,0.99229,1.3751,-0.61445,-0.25737,-2.1449,-1.0992,-0.25747,1.4259,1.0688,-0.15569,-0.61477,-0.027969,0.023035,0.58416,0.30353,0.55871,1.3494,-0.15554,-0.41066,-0.76771,-0.66561,-1.5582,-1.0737,1.4003,1.4769,0.48208,-0.61462,0.048708,0.12519,0.15062,-0.079051,-0.46161,-0.334,0.60955,-0.28308,0.38014,0.073922,-0.33407,-0.10443,0.25271,0.38017,-0.74208,-0.64008,0.176,0.99223,1.1963,0.43127,-0.92073,-0.5382,-0.56364,-0.20641,0.074185,-0.2065,-0.20661,-0.20667,-0.028054,0.22715,0.12509,0.66072,-0.74205,-0.18094,-0.053323,1.3495,0.86458,-0.23216,-1.0228,-1.1248,-0.027871,0.099534,0.023084,-0.053482,-0.43588,0.5334,0.48209,0.27797,-0.48722,-0.64017,-0.053446,1.3493,0.86473,-0.69116,-0.15542,-0.20643,-0.027993,0.17607,-0.028018,-1.1758,-0.46157,1.1962,1.0178,-0.28294,-0.51232,-0.64009,-0.10459,0.073898,0.73713,-0.41051,-0.15554,-0.002521,0.40571,1.1708,-0.7675,0.68641,0.15051,-0.41072,-0.41066,-0.35961,-0.92065,-0.10449,0.66071,0.50768,-0.51248,-0.28303,0.35446,2.4462,0.73723,-0.86972,-1.1247,-0.38513,-0.18109,-0.43604,-0.43598,-0.86967,0.94125,1.0178,-0.86976,-0.61448,0.94136,2.3441,1.0177,-0.58916,-1.5073,-1.2012,-0.10454,0.5587,-0.25752,-1.1247,0.71163,1.1452,0.8137,-0.48716,-0.56338,-0.41046,0.40564,-0.10456,-0.25757,-0.18099,1.681,0.58409,-0.43612,-1.0482,-0.7676,0.22712,0.50754,-0.00257,-0.5126,-0.7675,0.86485,1.6043,0.38019,-0.51252,-0.53806,-0.56359,-0.13016,0.45659,-0.002412,-0.078923,0.30361,-0.028018,-0.13002,-0.027962,-0.79312,-0.58915,0.94121,1.4259,-0.028042,-0.53806,-0.64012,0.60969,-0.20658,0.91575,0.78829,-0.46156,-0.56367,-0.46159,-0.30844,0.58432,-0.79315,-0.46167,-0.33412,0.55867,0.32917,1.4514,0.25251,-0.18107,-0.30854,-1.0481,-0.79306,0.2016,0.20164,0.17607,0.30363,0.60957,0.38002,0.32899,0.048531,-0.078966,-0.64014,0.099564,-0.15549,-0.28297,-0.53794,0.66082,1.2728,-0.48724,0.099515,-0.4616,-0.078947,-0.002467,0.20158,-0.58908,-0.64008,0.38016,0.35445,0.15041,0.30366,-0.23196,0.91588,0.81375,-0.13007,-0.53807,-0.81862,-0.48702,-0.20661,-0.2066,0.22707,0.20163,1.0179,1.0433,-0.81873,-0.64009,-1.1757,-0.46147,0.25246,0.073953,0.35459,0.12503,0.074033,0.71163,0.55876,0.20167,0.04858,0.074051,0.25248,-0.76771,-0.28298,-0.25743,-0.38505,-0.28308,-0.053506,0.68623,0.63536,0.074111,-0.15564,-0.13012,0.38008,-0.71662,-0.74215,-0.18112,0.78824,0.63531,0.048689,-0.51259,0.073935,0.22699,0.22704,-0.53807,-0.81861,0.78818,1.7065,0.32917,-0.58901,-0.56353,-0.10457,-0.35966,-0.10453,-0.58914,-0.56364,0.78818,1.7831,0.3802,-0.38501,-0.58912,0.099442,-0.20663,-0.23212,-0.61467,1.222,1.0179,-0.23201,-0.61464,-0.86962,-0.1555,0.71161,-0.15557,-0.46162,-0.48703,0.15058,0.81368,0.60979,-0.02792,-0.12992,-0.30854,0.15049,0.022998,-0.079093,-0.41063,-0.56358,0.15059,-0.027931,0.71172,-0.28295,0.32918,0.58413,0.074033,-0.41061,-0.79318,-0.76772,-0.002516,0.0741,0.78835,1.8088,-0.43602,-0.38524,-0.86988,-0.43607,-0.23209,-0.43618,-0.027987,0.25272,0.68623,0.17606,-0.30851,0.25254,0.32908,0.25267,-0.71658,-0.30856,-0.15549,0.55872,1.528,0.43117,-1.2267,-1.1503,-1.2014,0.20146,0.17604,0.20152,0.25253,0.53321,-0.20639,-0.7164,-0.38494,0.30352,0.58407,1.2474,0.09957,-0.48716,0.45658,0.43112,-0.33409,-0.53805,0.023059,0.099448,-0.13006,-0.30851,0.074124,0.12504,0.60975,-0.12999,-0.35962,0.53326,0.20171,0.76261,-0.33416,-0.58908,-0.8696,0.22718,-0.10457,0.94125,-0.13005,-0.69115,-0.61464,0.32903,0.50766,0.27815,-0.12992,0.25262,0.25257,0.074044,0.074044,0.074081,0.1251,0.32903,-0.053525,-0.15551,-0.84412,-0.71665,-0.25753,1.0688,1.2984,0.15066,-0.53801,-0.25761,0.12489,-0.71668,-0.92079,-0.18106,0.32918,1.0689,0.91585,-0.10442,-0.41055,0.073953,-0.33412,-0.64016,-0.35962,-0.079002,0.78814,0.83927,1.0944,-0.15533,-0.64011,-0.079093,0.38016,0.43115,-0.58908,-0.97178,-0.53814,0.17604,0.09954,-0.30844,0.66078,0.50757,-0.28309,-0.46159,0.20158,0.96669,0.76268,-0.30857,-0.30849,-0.2064,-0.41041,-0.3851,-0.10452,0.023017,-0.33405,-0.00251,0.17607,-0.15551,0.17615,0.99245,0.17611,0.12499,-0.23214,-0.38519,-0.33405,-0.66565,0.68624,0.27816,0.30372,-0.20639,0.099577,0.6605,-0.4617,-0.30856,-0.84407,-0.35948,0.22699,0.17612,0.25273,0.22714,0.099491,0.27794,0.099436,-0.10444,-0.30844,-0.38499,-0.15548,-0.15548,0.76277,0.25265,-0.027938,-0.079057,0.12503,0.12494,-0.53814,-0.3851,0.60963,1.1453,0.048653,-0.61452,-0.46153,-0.002479,-0.20654,-0.1555,-0.30851,-0.18102,0.25255,0.30358,1.2984,0.27816,-0.3595,-0.13003,-0.41063,-0.46167,-0.28308,0.38015,0.60976,0.048598,-0.20651,-0.3085,-0.61462,0.17599,0.17604,1.4004,0.12508,-0.61463,-0.71676,0.32916,0.04858,0.20166,0.20166,-0.002613,-0.41063,-0.23203,-0.10452,-0.00254,0.55858,0.60974,0.38026,0.099766,-0.20643,-0.58917,-0.58918,-0.5636,-0.10455,0.48204,0.76264,0.50774,-0.053458,-0.53801,-0.69103,0.15053,0.3546,0.12504,0.63523,-0.079118,0.09943,0.15056,-0.28294,-0.28292,-0.25749,0.45658,0.074038,-0.10447,-0.25755,-0.15552,0.15054,-0.028018,0.023047,0.68634,0.8648,0.27806,-0.20655,-0.30859,-0.64011,-0.23203,0.17603,0.22707,-0.15546,-0.30842,-0.23193,-0.10456,-0.15559,-0.35955,0.12504,1.0178,2.2677,0.17603,-0.7167,-1.1247,-1.0228,-0.61474,-0.71669,0.50761,-0.1299,0.7628,0.12506,0.45664,-0.027969,-0.25746,-0.15545,0.68613,0.40557,-0.00251,-0.46157,-0.23201,0.27808,0.20161,-0.28298,-0.20643,-0.053476,0.68619,-0.53818,-0.38509,-0.35953,1.7321,0.27805,0.53306,-0.79321,-0.86969,-0.76763,-0.43611,0.27815,0.53321,-0.20645,-0.053372,0.58413,0.58408,0.81365,0.023072,-0.18092,-0.25759,-0.48711,0.30364,-0.12996,-0.13001,0.0485,-0.00251,-0.10449,-0.41049,-0.3085,0.15049,0.60956,0.30361,-0.15537,-0.25746,0.53313,0.25257,0.12507,-0.53805,-0.20652,0.073984,0.4567,0.048592,-0.74218,-0.46164,0.48208,0.30361,-0.48708,-0.99711,-0.2574,0.48215,0.83912,0.96674,-0.25743,-0.51258,-0.43615,-0.13003,-0.15549,0.17605,0.2526,0.4821,0.3291,-0.487,-0.56354,0.43124,1.0178,-0.28307,-0.28315,-0.33411,0.4822,0.60965,-0.43615,-0.69117,-0.89519,-0.6146,0.6607,0.55869,0.27825,0.4313,0.20156,-0.1301,0.73712,-0.38519,0.22719,-0.05347,-0.15554,-0.41059,-0.53809,-0.48701,-0.30847,0.43113,0.45651,0.176,0.38017,0.58428,0.43116,0.2271,-0.38502,-0.76757,-0.41051,-0.18106,-0.35962,-0.28308,-0.30855,0.45665,0.58414,-0.028005,-0.13002,0.15064,0.40567,-0.15556,-0.23204,0.30361,-0.10445,-0.35957,-0.64015,-0.41058,0.27814,0.32919,-0.027913,0.048487,0.02301,0.022998,-0.002528,0.40557,0.023041,-0.078977,-0.10447,0.20174,1.1964,0.78822,-0.2321,-1.0483,-0.97174,-0.64015,0.023005,0.17606,0.27811,-0.20643,0.68632,0.5077,-0.28312,-0.35966,0.3802,0.35459,0.17602,-0.51262,-0.02795,0.66085,-0.12994,-0.61467,-0.69122,-0.46161,-0.12999,-0.12998,0.30358,0.53318,0.12509,0.09965,-0.41054,0.3035,0.22705,0.20166,-0.43604,-0.51268,-0.10459,-0.07907,0.27819,0.94144,-0.10445,-0.23212,-0.18109,-0.25756,-0.41056,0.40565,0.099564,0.5077,0.12507,-0.078972,-0.38505,-0.25753,-0.15551,0.22709,-0.0535,-0.35957,0.35456,0.35455,-0.20648,0.07416,0.30372,0.50766,0.5841,-0.30855,-0.61463,-0.28308,-0.64018,-0.35962,0.53326,0.71184,0.15064,-0.053513,-0.30863,0.17607,0.25258,-0.51265,-0.1811,-0.28304,-0.2064,-0.027876,0.35469,0.50757,0.30352,-0.10451,0.074087,-0.078941,-0.10448,-0.25748,-0.30857,-0.23196,0.099626,0.55862,0.25243,-0.38513,-0.58911,0.27809,1.1964,0.15056,-0.18101,-0.33402,-0.2065,-0.10456,-0.23207,0.22715,-0.20644,-0.30851,0.58417,0.022998,-0.283,0.30368,-0.28298,0.32904,-0.053555,0.17608,-0.15545,-0.48709,-0.33409,0.45664,0.099601,-0.33395,-0.078935,-0.15553,0.20155,-0.18098,-0.027907,-0.41066,0.073959,0.30349,0.6096,0.17612,-0.18087,-0.23198,0.20169,0.048567,-0.13005,-0.48704,-0.33405,-0.028018,0.32909,-0.053433,0.20159,0.32905,0.27803,-0.0535,-0.1044,-0.053409,-0.13002,0.25259,-0.28308,0.023139,-0.2065,-0.18104,-0.002534,0.50759,-0.078977,0.58421,0.15057,-0.078928,-0.46159,-0.20644,-0.20646,-0.20655,-0.48723,-0.15561,-0.4871,0.12513,0.55875,2.1912,0.099608,-0.81864,-0.61462,0.50759,-0.20654,-0.20656,-0.64016,-0.48709,0.30358,0.45661,0.023059,0.048604,-0.053397,0.40561,0.0485,0.12509,-0.2575,-0.07907,-0.028029,0.20161,0.048598,-0.18094,-0.4615,-0.079033,-0.079081,-0.10451,-0.181,-0.078977,0.45662,0.17611,-0.61463,-0.027827,1.5281,0.35461,-0.30876,-0.61476,-0.74218,-0.4106,-0.33406,-0.46154,-0.23198,0.048653,0.58427,0.71171,0.17602,0.25256,-0.10445,-0.12998,0.12503,0.17604,-0.10446,-0.35946,-0.23201,0.099479,-0.002552,0.023023,0.27814,-0.25754,0.91576,0.023047,-0.38505,-0.56353,-1.0227,-0.46165,0.83922,1.0434,1.0943,-0.61464,-0.61463,-0.30849,-0.30854,-0.10449,0.048561,0.20151,-0.028018,0.023103,0.43123,0.023035,-0.30853,0.30356,-0.00251,0.6352,-0.15546,-0.18101,-0.4871,-0.41052,-0.46157,-0.94625,0.2526,1.8851,0.7117,-0.79316,0.15057,0.32906,-0.28318,-0.35959,-0.71664,0.074124,-0.078935,0.048665,-0.56361,-0.18097,0.30366,2.0892,0.50756,-0.10464,-0.48719,-0.71659,-0.53805,-0.23203,-0.053464,-0.18092,-0.1299,0.91572,0.81369,0.27805,-0.64009,-0.97171,-0.41057,0.45666,0.32916,-0.23202,-0.12999,0.27808,0.35454,-0.13005,-0.13002,-0.181,-0.25756,0.17612,-0.12994,-0.15545,0.1251,0.22703,0.5332,0.35467,-0.027969,-0.66566,-0.56363,-0.07899,0.35464,-0.12999,-0.25748,-0.15549,-0.053555,-0.079026,0.38017,0.074033,0.023005,-0.23205,0.25259,0.50773,-0.10435,0.02309,0.09943,-0.58914,-0.5636,0.1506,0.30358,-0.10454,-0.12998,0.023096,-0.15545,-0.002485,0.02295,-0.10452,-0.41061,-0.66565,0.1251,0.76275,0.71179,0.60979,-0.23196,-0.13004,-0.1556,-0.2321,-0.58921,-0.92073,-0.23201,0.38017,0.68633,-0.385,-0.23198,0.12505,0.17599,0.3546,0.04858,-0.053451,0.78826,0.12498,-0.38514,-0.6146,-0.56356,-0.33404,1.0178,0.45666,-0.078996,-0.48707,0.022998,0.023035,-0.2575,-0.46148,0.55879,0.96685,0.2015,0.022998,0.048494,-0.92075,-0.56364,0.048567,-0.33406,-0.538,0.048629,0.048555,0.45656,0.25252,0.22705,-0.053482,0.17614,0.86482,-0.002418,-0.07891,0.099559,-0.30858,-0.48724,-0.35956,0.099559,-0.10449,0.074013,0.20159,0.12516,-0.30846,0.023059,-0.027938,-0.028029,-0.23207,-0.23205,-0.13,0.22712,0.27808,0.7372,0.81379,0.074124,-0.25757,-0.56374,-0.66563,-0.181,-0.20658,-0.56356,-0.053421,1.0178,0.20165,-0.28298,-0.053525,0.66056,0.40568,-0.30843,-1.0227,0.099577,0.17605,-0.053495,0.32912,-0.15549,0.12509,0.12502,-0.30856,-0.41055,-0.43609,-0.23204,0.048518,-0.10458,0.55876,0.7374,1.0688,0.30352,-0.33406,-0.48708,-0.76767,-0.58914,-0.002503,0.15063,-0.002387,0.023047,0.15055,0.5076,0.35464,0.25258,-0.28308,-0.74214,-0.35954,-0.002436,-0.002387,-0.28292,-0.05347,1.6554,0.63519,-0.46164,-1.0993,-0.74219,-0.28309,-0.33406,0.50775,0.27817,0.023029,0.15054,0.43113,0.55866,-0.38505,-0.51254,0.09957,0.1761,0.099595,-0.18096,-0.002472,0.17602,0.15048,0.023047,-0.58911,-0.38503,0.074087,0.3036,-0.027938,0.15066,-0.18106,-0.053549,-0.027962,0.25265,-0.20653,-0.18101,0.17606,-0.20646,0.22715,0.48215,0.20149,0.12494,-0.13002,-0.53801,-0.35955,0.2271,0.25262,-0.053446,-0.053415,-0.23196,0.048604,0.25252,0.32908,0.023041,-0.35957,-0.41061,0.12499,-0.20653,-0.20643,-0.078966,-0.12996,0.38011,0.66072,-0.43607,0.048536,0.023035,-0.079002,-0.078935,-0.15551,-0.053464,0.20161,0.22705,-0.053451,-0.56361,-0.3341,0.6862,0.43107,0.25257,-0.18092,-0.28298,-0.18103,-0.028042,-0.15551,-0.334,-0.41058,-0.51259,0.12506,0.66075,0.38016,0.023059,0.048506,-0.15557,-0.30858,-0.078959,0.15064,0.45666,0.66068,-0.30854,-0.46157,0.78835,-0.53807,-0.51265,-0.51265,-0.15549,-0.15553,-0.027987,0.55862,0.50766,-0.33404,-0.33401,-0.027956,1.0688,0.71175,0.048592,-0.69113,-0.61465,-0.2831,-0.28306,-0.15545,0.023103,0.20164,0.35458,0.099534,-0.002552,-0.10449,-0.078959,0.12509,0.023072,-0.232,-0.46153,0.048561,-0.028047,0.50769,0.22713,-0.30854,-0.28307,0.048512,-0.35959,0.074111,-0.053415,0.17612,0.68617,0.50761,-0.33407,-0.84424,-0.35956,-0.053488,-0.053446,-0.10444,0.023059,0.45662,0.15049,0.12508,0.099546,-0.25751,-0.078966,0.35465,-0.41053,0.099668,-0.28297,0.12513,0.20146,-0.30865,-0.53815,-0.30854,0.73727,0.66071,-0.028029,-0.71663,-0.43595,0.45676,0.35458,-0.1811,-0.58922,-0.61462,0.32914,0.96675,-0.58908,-0.38502,0.53327,0.40565,0.20148,-0.56358,-0.53812,-0.35957,-0.079002,0.30364,0.30367,-0.23188,0.32917,0.78821,0.55856,-0.30852,-0.61462,-0.69116,-0.46159,-0.28309,-0.053537,-0.12999,0.35476,0.35467,0.60967,-0.15551,-0.53812,-0.58918,-0.079008,0.27806,0.45666,0.27823,0.3803,0.89032,-0.053549,-0.89527,-1.0483,-0.84422,-0.61462,0.22708,0.12504,0.17614,0.35474,0.27812,0.63509,0.35458,0.43111,-0.30855,-0.38508,-0.027962,-0.2319,-0.15543,-0.51252,-0.002467,0.12496,-0.053544,-0.13002,-0.30856,0.43118,-0.13004,-0.25752,-0.18098,0.22715,1.0178,0.278,-0.30859,-0.58913,-0.76767,-0.38503,0.38016,0.0741,0.20164,0.40569,0.30369,0.27807,-0.10458,-0.48713,-0.71662,-0.30852,0.45662,0.35464,-0.18098,-0.71661,0.048555,0.4821,2.5484,-0.002503,-1.0228,-1.1248,-0.18112,-0.38503,0.30368,-0.23191,-0.20653,0.35452,0.66064,0.25259,-0.7166,-0.078959,0.15059,0.023023,-0.20647,-0.58902,0.27814,0.60963,0.3546,0.048525,-0.41051,-0.41057,0.50758,0.48222,-0.18101,-0.18095,-0.48709,0.099448,-0.56358,-0.35954,-0.30856,0.17605,0.58414,0.38012,0.1251,-0.027871,0.17607,0.074013,-0.07907,-0.13001,-0.05339,-0.3085,0.96683,-0.20649,0.12509,-0.64011,-0.30852,0.15051,-0.20656,-0.25763,-0.30859,0.17609,0.60968,0.099613,0.78837,-0.4105,-0.30859,0.43105,-0.002467,-0.38504,-0.43604,-0.12996,-0.13002,-0.028036,0.40571,0.60981,-0.05347,0.86464,-0.15557,-0.94625,-0.76767,-0.053439,0.71172,-0.23205,0.17612,0.53336,0.40571,-0.18111,-0.58916,-0.6402,-0.89526,-0.25751,0.71171,1.0178,0.30368,-0.25745,-0.10445,0.22694,-0.3341,-0.48706,-0.28306,0.023084,0.55864,0.35462,0.22714,-0.53801,-0.30848,0.329,-0.027993,0.074075,-0.33405,-0.38511,-0.20655,-0.43608,0.04858,0.99244,0.76275,0.022925,-0.56363,-0.61461,-0.43608,-0.20651,0.3546,0.50771,0.15064,0.22715,-0.13001,0.099424,0.35463,-0.20652,-0.15551,-0.38505,0.27809,-0.33402,-0.027895,-0.30843,-0.02792,0.35454,0.20153,-0.002503,-0.2065,-0.12999,0.25255,0.15059,-0.12993,0.074111,-0.15546,0.40559,0.58414,-0.25758,-0.76766,-0.69109,-0.027993,0.30362,0.22715,0.12519,0.66075,0.022894,-0.79324,-0.43606,-0.53809,-0.30859,0.27805,0.22713,0.89034,0.32922,-0.28298,-0.13012,0.022956,-0.027987,-0.30854,0.074062,0.12505,-0.12999,-0.20644,-0.1809,0.22713,0.86468,-0.18106,-0.33405,-0.74212,-0.46154,0.048494,0.22711,0.83933,-0.053446,-0.1045,0.329,-0.33409,-0.3851,-0.079045,-0.30854,0.48215,0.40567,-0.33402,0.12521,-0.002423,0.099479,0.17603,-0.3596,-0.7931,-0.23195,0.5331,0.20158,0.074118,-0.027864,-0.25749,0.60957,0.40557,-0.15556,-0.41062,-0.10449,0.22705,-0.053421,-0.28298,0.53336,-0.25749,0.022943,0.45659,0.022986,-0.10447,-0.33407,-0.053519,-0.28303,-0.334,-0.41047,0.099613,0.78818,0.71171,-0.1045,-0.35957,-0.15556,0.20155,0.4311,-0.15543,-0.25744,0.048555,-0.02806,-0.25754,-0.053402,-0.43605,0.074093,0.99226,-0.079051,-0.28309,-0.61457,0.50774,0.20154,-0.30857,-0.41058,-0.53814,-0.35956,0.30358,0.30362,0.074106,0.17619,0.20164,0.55857,-0.18103,-0.30854,-0.078972,-0.15552,0.40563,0.1506,-0.027938,-0.41054,-0.35957,-0.028018,0.32907,0.15059,-0.46159,-0.30851,0.17612,0.58422,-0.10448,-0.61463,-0.13004,0.17595,1.7831,0.3292,-1.1248,-0.6146,0.12505,0.12512,-0.1555,-0.23201,-0.079014,-0.05358,-0.05347,0.3291,0.1507,1.1454,0.66063,-0.25759,-0.41063,-0.71659,0.023096,0.35458,-0.2065,-0.48705,-0.38503,-0.02795,0.25257,0.15055,0.15052,-0.20645,0.20167,0.71166,0.55859,0.25251,-0.74221,-0.43604,0.17612,-0.20644,-0.38499,-0.053323,-0.15549,0.32899,0.27803,-0.079093,-0.74212,-0.56361,0.12507,0.38022,0.73733,-0.002394,-0.002467,-0.02806,0.099503,0.40561,-0.43607,-0.51259,-0.002497,-0.07899,0.074062,0.32925,-0.33399,0.38008,0.099497,-0.13004,-0.38505,-0.10445,0.38006,-0.10445,0.09965,-0.23196,0.023005,0.27803,-0.15556,-0.23203,-0.38504,-0.15545,1.3494,0.43113,-0.48709,-0.76763,-0.41058,0.12496,-0.13001,-0.078996,-0.35953,-0.10444,0.58417,0.35458,0.17615,0.2272,0.25262,0.40548,-0.46162,-0.74213,-0.53804,0.099632,0.55866,0.074038,-0.053488,-0.48707,-0.43606,0.45654,-0.079033,0.099583,0.58427,-0.053476,0.20153,0.15057,-0.02792,-0.30846,-0.48707,-0.35966,0.2271,0.40561,-0.13001,-0.35956,-0.13005,-0.12999,-0.35946,0.4313,0.32909,0.45651,0.12503,0.074038,-0.46157,-0.43606,0.71171,0.38016,-0.20646,-0.6655,-0.20651,0.17592,0.048487,-0.027969,0.099619,-0.0535,0.50764,-0.027993,-0.10444,-0.30844,-0.1555,-0.1301,-0.10452,0.099588,0.048549,-0.1555,-0.002528,-0.002448,0.22715,0.2017,-0.053397,0.099485,0.27803,0.099528,-0.30854,-0.20652,-0.33415,-0.18098,0.27816,0.048653,0.35462,0.40552,0.074081,-0.33407,-0.18101,0.35465,0.048543,-0.56362,-0.078984,-0.28295,0.023078,0.32898,0.15046,0.15056,-0.23197,-0.15546,0.48215,-0.10447,-0.10449,-0.18092,0.25267,1.6554,-0.053549,-0.25761,-0.9207,-0.69119,0.35463,0.22714,0.099613,-0.46152,-0.35957,0.30347,-0.053519,0.1761,-0.078923,-0.10449,0.099503,0.76277,0.30367,-0.56347,-0.35953,0.37995,0.48215,-0.20646,-0.43609,-0.28307,0.22706,-0.20652,-0.48702,0.099657,0.30361,0.38003,-0.20655,-0.33407,-0.64008,0.12514,0.32913,0.43121,0.023017,0.12508,-0.33394,0.83915,0.02298,-0.35964,-0.46156,-0.002479,0.176,-0.10452,-0.10439,-0.10433,0.43126,0.38003,-0.13007,-0.84428,-1.3543,0.22716,2.3187,-0.027962,-0.18105,-0.84411,-0.51257,0.43108,-0.51263,-0.25764,-0.5381,0.12512,1.0943,0.43115,0.048555,-0.28292,-0.51248,0.074002,0.073995,0.22702,-0.28305,-0.10454,0.22705,-0.30845,-0.1299,-0.23194,0.023047,0.40549,0.022974,0.32912,-0.18097,-0.12999,0.12498,0.43112,-0.078917,-0.58902,-0.33398,0.50757,-0.028066,-0.53815,-0.15548,-0.053476,1.579,0.074087,-0.15548,-0.64011,-0.46155,0.2015,0.20153,-0.12998,-0.053446,0.2271,0.17602,0.22706,-0.078953,-0.15536,-0.15548,0.17594,-0.41056,-0.28302,-0.51257,-0.027993,0.6352,1.8341,-0.41054,-0.48702,-0.43609,-0.02809,-0.028029,-0.2321,-0.41058,0.50767,0.38006,-0.027956,-0.25749,-0.25743,-0.33398,0.27807,0.20154,0.023023,-0.58905,-0.15545,0.35455,-0.13,0.15059,-0.027901,-0.2065,0.17596,0.17603,-0.1045,0.099595,-0.35953,0.81374,0.023005,-0.13002,-0.078886,-0.35953,0.073959,-0.002467,-0.51256,-0.6401,0.099564,0.60962,0.43115,-0.18101,-0.027876,0.17611,0.81364,-0.15554,-0.38506,-0.38503,0.048543,0.25257,-0.027938,0.17612,-0.2064,0.02309,0.048463,-0.30862
-0.18101,0.09957,0.099564,0.074062,-0.053409,-0.027931,0.17602,0.1505,-0.027993,-0.12999,-0.12999,-0.002467,0.17608,-0.053458,-0.15542,-0.053433,0.099497,0.17601,0.02301,-0.027969,-0.18101,0.15057,0.22708,-0.12998,-0.23195,-0.07891,0.12504,0.073959,-0.002491,-0.10447,-0.053495,0.048518,0.20159,-0.053439,-0.25745,-0.20644,0.20155,-0.028047,-0.15552,-0.078977,-0.053495,0.074038,0.27809,0.12508,-0.078923,-0.12993,0.15055,0.073965,-0.053495,-0.12999,-0.13003,0.09954,0.22708,-0.002461,-0.20643,-0.20645,0.17606,0.12501,-0.079014,-0.25752,-0.15548,0.20157,0.20157,-0.12996,-0.12995,-0.002418,0.15055,0.17598,-0.053488,-0.23199,-0.15552,0.048531,0.20159,0.074075,-0.10443,-0.053415,0.22707,0.15048,-0.002485,-0.20651,-0.18103,-0.027993,0.2271,0.023065,-0.12994,0.048604,0.15056,0.1505,0.023005,-0.23201,-0.23201,-0.027987,0.15056,-0.078947,0.048598,0.023084,-0.053495,0.15051,0.07402,-0.28302,-0.25754,0.048518,0.074038,-0.078947,0.023108,0.02309,0.15053,0.048487,-0.002467,-0.078972,-0.33406,0.023035,0.40564,-0.002461,-0.25746,-0.10442,0.048531,0.073971,-0.002503,-0.13001,-0.12999,0.023029,0.20156,0.023072,-0.1044,0.023108,0.12504,0.099473,-0.079002,-0.15549,-0.12999,0.074033,0.15057,-0.02792,-0.078923,-0.053433,-0.028005,-0.002528,0.12504,-0.053495,-0.25754,-0.002472,0.3036,-0.02795,-0.12992,-0.18092,0.25257,0.30352,0.023035,-0.053482,-0.18104,-0.15553,0.12507,0.048567,-0.23196,-0.15542,0.2271,0.176,-0.028018,-0.15551,-0.38505,0.17611,0.099546,0.048555,-0.027913,0.074087,0.099515,0.2015,-0.027993,-0.2575,-0.2575,0.20159,0.17607,-0.05347,-0.15546,-0.10445,0.12503,0.099497,-0.079002,-0.20649,-0.10449,-0.027969,0.15056,-0.002461,-0.053433,-0.002418,0.074033,0.17599,0.023029,-0.12998,-0.2065,0.074038,0.27809,-0.027962,-0.10443,-0.078923,0.099552,0.17601,-0.028005,-0.25751,-0.25753,0.048543,0.17607,0.023065,-0.053409,-0.10444,0.12504,0.30352,0.02301,-0.20652,-0.38505,0.048555,0.27812,0.074062,-0.053427,-0.18094,0.023041,0.048487,-0.053488,-0.078984,-0.12999,-0.002491,0.22708,-0.02795,-0.053415,-0.10443,0.12503,0.099473,0.02301,-0.18099,-0.18101,0.09954,0.22706,-0.00243,-0.23193,0.023121,0.099521,0.099466,-0.13003,-0.18101,-0.20652,0.048536,0.099564,0.074081,0.12512,-0.002423,-0.027993,0.073989,-0.1555,-0.18099,-0.053482,-0.13,0.22708,-0.02795,-0.078917,-0.15544,0.048536,0.073965,0.022992,-0.12999,-0.25752,-0.053464,0.17609,-0.053451,-0.078923,0.023072,0.12506,0.176,-0.078984,-0.12998,-0.15551,0.048536,0.35459,-0.10444,-0.23193,-0.28296,0.048536,0.40553,-0.079008,-0.38502,-0.38505,-0.13,0.27809,0.25263,-0.002418,-0.053421,-0.027987,-0.028054,-0.053537,-0.12999,-0.25751,-0.10449,0.20157,0.22711,0.0741,-0.02792,0.023029,-0.002521,-0.10452,-0.28301,-0.12999,-0.002461,0.25257,-0.002423,-0.23194,-0.28299,0.023017,0.27799,0.12503,0.12509,-0.38503,-0.002497,-0.053525,0.074062,0.023157,-0.20643,-0.2065,-0.15555,0.12503,-0.15551,-0.18101,0.023065,0.32907,0.099583,-0.002418,-0.02792,-0.079002,-0.00254,0.22706,0.12509,-0.002448,-0.20649,0.22712,0.1506,0.074081,-0.35954,-0.51258,-0.30861,0.099497,0.048567,0.023047,-0.30855,0.15059,0.17612,-0.053439,-0.10444,0.09954,0.099461,-0.053476,-0.28296,0.30366,0.074038,0.53312,0.17609,0.35458,-0.35954,-0.46156,-0.41058,-0.38502,0.48219,-0.078984,0.02301,-0.23204,-0.25755,0.023041,0.074111,0.099577,0.78819,0.25252,-0.2831,-0.23206,-0.53811,0.25262,0.099681,0.09965,0.22718,-0.10448,0.022992,-0.079093,-0.43614,-0.64013,-0.33402,0.78827,0.99237,0.45672,0.023029,-0.079021,-0.46166,-0.33407,-0.51262,-0.4361,-0.41057,-0.002423,0.099583,0.40571,0.55878,0.30366,0.25254,-0.13001,0.099497,-0.20655,-0.4871,-0.15554,-0.28305,-0.078959,-0.15542,0.022998,0.02298,0.27809,0.43117,0.15067,0.1506,0.40565,-0.25752,-0.002387,-0.18095,-0.53809,-0.53823,0.27806,-0.028066,-0.002558,0.25262,0.40566,0.17614,-0.28296,0.17617,-0.027993,-0.028047,-0.10449,-0.46159,-0.38505,-0.23205,0.27809,0.63526,0.30361,0.1251,0.3037,-0.28313,-0.38518,0.15052,-0.64013,-0.43607,1.528,0.66079,-0.35944,-0.436,-0.61464,-0.46173,-0.61474,-0.48718,-0.20656,0.48211,1.528,0.12521,-0.078886,0.45673,-0.46163,-0.56375,-0.48716,-0.027969,0.17609,0.89027,-0.027987,-0.35953,-0.53806,-0.7931,-0.43609,0.12502,0.25264,1.0179,0.55871,-0.33411,0.50762,-0.12998,-0.002443,-0.69113,-0.58918,-0.41069,0.83925,1.528,-0.30856,-0.99722,-0.8187,0.15062,0.94144,0.53328,-0.4106,-0.97182,-0.64023,-0.20652,0.15057,0.12507,1.0688,0.55878,0.40576,-0.027803,-1.1502,-0.53823,-0.30861,0.38011,-0.33412,-0.10455,-0.053544,0.17607,2.2167,1.4769,-0.74218,-0.33407,-0.99726,-0.76769,-1.3033,-0.76767,-0.23196,0.78834,0.2016,0.15059,0.32907,-0.002558,0.15054,0.074051,-0.41049,0.07413,0.023054,0.81381,1.1709,0.43124,0.12505,-0.23214,-1.6606,-1.5584,-0.64011,0.40576,0.099588,-0.13005,0.7372,0.40574,0.38018,0.43103,-0.51262,0.074033,-0.94619,0.15062,-0.41056,-0.25753,0.50771,0.63526,0.2016,-0.53821,0.073984,0.81374,0.89043,-0.1554,0.76277,-0.027974,-0.81868,-1.2523,-1.2779,-0.56378,0.91569,0.125,-0.002443,1.5281,0.2526,-0.23196,-0.18092,-0.99716,-0.51262,0.91573,0.22705,-0.35953,-0.46163,0.55872,0.27813,-0.1555,0.58421,-0.10448,-0.92068,-0.028036,-0.92076,0.3802,0.27818,0.86488,0.60955,-0.002485,-0.38507,-0.58913,-0.35967,-0.92074,-0.35957,0.12523,0.32915,0.55868,1.2217,0.27812,-0.61459,-0.92057,-0.1299,1.2474,0.30357,1.5025,0.66076,-0.97176,-1.5075,-1.788,-1.2013,-0.12995,0.58424,0.17594,1.3239,1.5535,1.0178,-0.51261,-0.15562,-1.1759,-0.74214,-0.18089,0.30372,0.73715,-0.38508,-0.38503,-0.20644,0.81369,0.96672,0.074057,-0.69105,-0.6911,-0.38493,0.78822,0.32905,-1.1248,-1.3034,-0.35961,1.2984,0.50773,-0.41057,-0.92067,0.048536,0.38006,0.30361,1.1454,-0.51252,-0.12997,1.63,-0.079021,-0.15554,-0.66565,-1.2013,-0.81875,-0.56364,-0.181,0.27815,0.074093,0.86485,0.7373,0.048506,0.20155,-0.13001,1.0687,0.9921,-0.43603,0.3038,-0.38486,-1.2268,-1.5074,-0.69128,-0.41049,-0.25748,0.17592,0.71168,1.3494,0.94133,-0.53803,-0.15546,0.38016,-0.41059,-0.30845,-0.15546,-0.56372,-0.2066,-0.002503,-0.30852,-0.053458,0.2526,0.17604,0.048629,0.023194,1.0434,0.66056,-0.10447,0.45669,0.099577,-1.0228,-0.56367,-0.92074,-0.53805,-0.89515,-0.58908,0.074051,0.35462,0.53313,0.78835,0.81381,0.68615,0.38005,0.12505,-0.66562,-0.30849,-0.027969,0.35466,-0.10447,-0.84419,-0.9973,-0.30854,-0.41058,0.25255,0.023054,-0.10439,0.15056,0.12505,1.5535,0.30366,-0.23208,-0.38518,0.27803,1.0944,0.074179,-0.74215,-0.92078,-0.12998,-0.48701,-0.69116,0.71168,0.43108,-0.07899,0.43118,-0.41049,-0.20644,0.2525,-0.38506,-0.20655,-0.23204,0.38013,0.9668,0.12503,-0.66561,-0.66554,0.58428,0.94126,0.99237,-0.64015,-1.3034,-1.4054,0.2526,-0.28309,0.17619,0.99243,-0.053439,-0.1556,-0.58916,-0.25757,-0.64016,0.73726,0.32912,0.02309,0.2016,0.22717,0.81379,0.43103,-0.35968,-0.7677,-0.99716,-0.61457,-0.10448,-0.20646,0.1251,1.018,1.2474,0.68611,-0.10456,-0.79324,-1.4564,-1.1503,0.15054,1.4515,1.1964,0.89049,-0.12993,-0.18119,-0.99733,-1.0738,-1.2524,-0.53811,0.22708,0.074075,0.32911,1.4005,0.86486,1.1453,0.022998,-0.84415,-0.81866,-0.33413,0.2271,-0.4871,0.17614,1.0945,0.35476,0.4056,-0.76778,-0.94633,-0.84424,-0.51265,0.15052,0.38014,-0.20644,-0.002356,0.45673,1.1198,0.12504,-0.76771,-0.84422,-0.46162,0.43113,0.43118,0.12513,0.048555,-0.1045,-0.053568,0.68623,0.15053,-0.81871,-0.51256,-0.002461,0.17609,-0.002423,-0.15544,0.55871,0.32904,0.15054,-0.74218,-1.0737,-0.76767,0.89024,1.1709,0.81381,0.074051,-0.61466,-0.33411,0.40562,0.58414,-0.078977,-0.6911,-0.20651,-0.48711,0.048585,0.023127,-0.12995,0.48208,0.023035,-0.43608,0.17611,0.22712,0.55867,0.048536,0.40558,0.32921,-0.76763,-0.15565,-0.66568,1.1454,-0.078966,-0.66568,-0.56365,-0.027913,-0.3595,0.35473,-0.053488,-0.07907,-0.10452,0.22699,-0.15549,-0.10445,0.58426,0.023078,0.20164,0.40568,0.27803,-0.053598,0.40566,-0.74219,-0.8952,-0.48706,0.17611,-0.35957,0.25263,-0.10434,0.55869,0.40553,-0.4871,-0.10453,-0.33404,-0.51263,-0.25758,0.60971,0.76277,0.76289,0.3037,0.17601,-0.66571,-0.79319,-0.56362,0.023059,0.45661,-0.053458,-0.33402,0.15063,0.94136,0.176,-0.69121,0.023145,0.38025,0.048518,-0.15562,-0.8187,-0.66567,-0.64011,0.40571,0.91576,0.12508,0.074106,-0.002394,1.1965,-0.10456,-0.58918,-0.43613,-0.28302,-0.05347,0.35448,-0.20655,0.048573,-0.10442,0.27809,0.15056,-0.23194,-0.053427,1.6046,-0.027938,0.17594,-0.56375,-0.76771,-0.64011,-0.74211,0.40565,0.3802,-0.18097,-0.12995,0.45664,0.38001,0.074062,-0.13004,-0.4361,-0.48707,0.66062,0.68633,0.30374,0.96693,-0.33407,-0.76778,-0.81871,-0.48713,-0.2066,-0.15552,0.17607,0.023096,0.55884,0.58433,0.048487,0.1504,-0.61466,0.53328,0.27817,-0.3851,-0.41058,-0.58914,-0.46158,-0.10447,0.53317,0.6351,0.176,-0.18103,-0.48702,-0.002381,-0.15546,-0.12993,0.20155,0.91589,0.27816,0.66056,0.074038,-1.2268,-1.3799,-0.69119,-0.18103,-0.027969,0.048629,-0.28282,-0.053378,0.94112,0.68608,1.3749,-0.002454,-0.33405,0.3036,-0.6912,-0.35954,-0.66553,0.43123,0.7627,-0.18105,-0.79326,-0.64015,-0.79318,-0.002528,0.2781,0.66079,0.78837,0.50769,0.17604,-0.23209,-0.028042,-0.079021,-0.28304,0.35453,-0.25755,-0.20643,-0.23192,-0.23188,0.0485,0.1505,0.17602,-0.30852,-0.46157,0.20158,0.66081,0.20156,-0.5381,-0.38505,1.4259,0.99234,-0.35959,-0.81873,-0.92078,-0.61474,-0.69116,-0.18096,0.15067,0.15068,0.86466,0.45662,0.2271,-0.33402,-0.15545,0.074062,0.22712,0.023054,-0.027871,0.25265,-0.35971,-0.74217,0.27809,0.30363,-0.56361,0.20156,0.25256,-0.00243,-0.41053,-0.18093,0.27799,-0.079033,-0.05339,0.96686,-0.20649,-0.4361,-0.13001,-0.28302,-0.46154,0.25259,0.45654,0.63524,0.17611,-0.41059,-0.56364,0.40556,0.35465,-0.28298,-0.53799,-0.18095,0.73718,0.40562,0.20153,0.099448,0.4057,-0.4616,-0.38504,-0.66564,-0.46146,0.45669,-0.18117,-0.30863,-0.35953,-0.46151,-0.41055,1.3494,0.7627,0.27816,0.2782,-0.6401,-0.079081,-0.38508,0.074013,-0.027969,-0.51256,0.60968,0.68617,-0.35952,-0.35952,0.25259,0.43108,-0.46158,-0.46158,0.023103,0.074087,-0.15554,-0.48717,-0.38502,-0.10442,-0.078972,0.30348,0.15054,0.4312,-0.12995,-0.53809,0.22702,0.30354,1.0689,0.15076,-0.66556,-0.23214,-0.18112,-0.23206,-0.64017,-0.58908,0.35467,0.12509,0.45672,1.1965,-0.30855,-0.028109,-0.74225,-0.64022,-1.1248,0.63526,1.5535,0.45669,0.048536,-0.64004,-0.48705,-0.002577,-0.28313,-0.23208,-0.15548,-0.283,0.76272,0.40573,0.81382,0.023047,-0.181,-0.18111,-0.58914,0.099601,-0.15546,-0.43608,0.17604,0.43115,-0.002436,-0.12993,-0.2575,-0.25765,-0.25762,-0.30858,0.3547,0.6607,0.22705,0.71174,-0.053427,-0.23187,-0.66559,-0.0791,-0.23212,0.38012,-0.283,-0.12995,0.20156,0.048512,0.20159,-0.12992,0.27818,0.30352,0.048536,-0.13004,-0.61462,-0.18097,-0.1045,0.048555,-0.053397,0.22715,0.17612,0.17593,-0.23211,-0.41062,0.22708,1.0944,0.048512,-0.4616,-0.20652,0.20172,-0.51251,0.12501,-0.28309,-0.48711,-0.61462,-0.46154,0.45668,0.66067,0.99227,0.50772,-0.20653,-0.35956,0.074149,0.83934,-0.58911,-0.3086,0.073917,-0.66567,-0.002503,-0.078923,-0.25744,0.50763,0.048506,0.27805,-0.28302,-0.23199,0.20159,0.09957,-0.232,-0.43598,0.45675,0.99223,0.89023,0.27803,-0.53809,-0.64014,-0.51267,-0.89521,-0.76766,0.45678,0.53321,0.89019,-0.10455,0.32913,-0.56364,-0.99723,-0.41055,0.30361,0.83931,0.96694,-0.30852,-0.028158,-0.30865,-0.43609,-0.66561,-0.2065,0.48213,1.1963,-0.002443,-0.28287,-0.1044,-0.10457,-0.35968,0.43106,-0.002448,0.20167,0.66071,-0.10451,-0.38503,-0.12992,-0.6911,0.073928,0.048476,0.09957,-0.92069,-0.30855,0.48214,0.15065,0.50776,0.55877,0.074062,-0.10464,-0.48717,-0.30852,0.63526,0.32904,-0.13007,-0.48714,-0.41054,-0.18094,0.023114,0.35458,0.22705,-0.027987,-0.02792,0.0741,0.15058,-0.33404,-0.25745,0.32917,-0.028018,0.20148,0.27802,0.78815,-0.51259,-0.74216,-0.23204,0.43127,0.38024,-0.6655,0.27817,0.25243,-0.25761,-0.51265,-0.41055,-0.18099,0.32908,0.94134,0.76282,-0.25751,-0.28306,0.32904,-0.20652,-0.232,-0.46157,-0.28305,0.176,0.099608,-0.078898,0.78838,0.45661,0.66062,-0.41065,-0.97174,-0.81868,-0.51259,0.60968,0.45664,-0.027931,0.45677,-0.15547,-0.25758,-0.56366,-0.35961,0.15064,0.81378,0.20158,-0.10447,-0.18101,0.02309,-0.10455,0.099406,-0.58919,0.53321,0.074111,0.099626,0.96681,0.38023,-0.43604,-1.0227,-0.28313,-0.10469,0.3801,-0.15546,0.30369,-0.23197,0.20156,-0.23199,0.86479,0.25266,0.15058,-0.18115,-0.69123,-0.027969,0.02309,0.40569,0.20155,0.53321,0.15059,-0.64007,-0.28309,-0.23213,-0.18107,-0.079002,-0.385,-0.053421,0.89026,0.15054,0.12507,0.12514,0.15059,1.2473,-0.38502,-0.53809,-0.10443,-0.23201,0.20151,-0.25762,-0.41058,-0.48702,-0.15547,0.94124,0.40562,-0.078984,-0.56364,-0.43611,-0.10452,0.73726,0.38017,0.099686,-0.13,0.55858,0.25254,-0.1555,-0.078928,-0.38506,0.048487,-0.053513,-0.15546,-0.58901,-0.12993,0.50758,0.71166,-0.23204,-0.53815,-0.25756,0.58421,0.27815,0.6098,0.17609,-0.38508,0.048487,-0.23208,-0.3086,-0.8697,-0.35959,-0.12998,0.17614,0.048604,0.40576,0.48219,0.58409,0.048518,-0.53809,-0.12998,0.074069,0.8902,0.12503,-0.1045,-0.43602,-0.43604,-0.10458,-0.10452,-0.23201,-0.20646,0.40573,0.15051,0.074008,-0.30859,-0.053421,-0.232,0.30355,-0.15559,0.20154,0.53326,0.074155,0.27806,-0.28307,-0.18101,-0.23199,-0.10444,0.55864,0.53311,-0.079021,-0.58908,-0.38509,-0.053519,0.099583,0.27819,0.099717,-0.20647,0.15051,-0.20656,0.32904,-0.61467,-0.23207,0.22707,0.58416,0.38014,0.17619,0.50776,0.048458,-0.74225,-0.71667,-0.027882,0.22715,0.63518,-0.30858,-0.35951,-0.41049,-0.027956,0.40554,0.074033,-0.30855,0.048518,0.5332,0.7372,-0.13,-0.23196,-0.23193,-0.38505,-0.02809,0.048494,0.25263,0.58427,-0.028047,-0.23213,0.43115,-0.283,-0.38493,-0.46153,-0.028029,0.32909,0.20156,-0.078959,0.20156,-0.028011,0.074051,0.3036,-0.15545,0.58427,-0.053592,-0.028018,-0.28302,-0.436,0.048561,0.38004,0.32909,0.17616,-0.76753,-1.1502,-0.53817,-0.13005,0.71168,0.7372,1.0433,0.15052,-0.4871,-0.3085,-0.30846,-0.23197,0.27805,0.176,0.20156,-0.078977,-0.053451,0.048506,-0.053482,0.91583,-0.20642,0.04861,0.17603,-0.2831,-0.69118,-0.89521,-0.38513,0.68616,0.45667,0.32923,0.20169,0.04861,-0.028085,-0.25762,-0.41058,-0.23205,-0.13002,1.0433,0.27811,-0.027962,-0.20644,-0.20646,0.15053,-0.002534,0.45673,-0.58906,-0.64015,-0.13009,0.40562,0.68627,-0.12993,-0.35956,0.20152,0.63515,0.1761,-0.48715,-0.6657,0.17603,0.25266,0.099626,-0.027827,0.30371,0.12501,-0.48717,-0.23209,-0.28303,-0.18099,0.27809,0.38011,0.53319,-0.07891,-0.002418,0.20149,-0.28315,-0.51265,0.22712,0.30366,-0.12995,-0.25751,-0.18101,0.04861,-0.12998,1.0432,0.099491,-0.10455,-0.66561,-0.38507,0.023047,-0.027969,0.53324,0.074124,0.22715,0.20149,-0.2066,-0.23205,-0.64014,0.32913,1.3494,0.4311,-0.002423,-0.58902,-0.64006,0.074013,-0.13007,-0.18103,-0.46157,-0.25754,0.27802,0.55862,0.53317,0.96697,0.023194,-0.28309,-0.20653,-0.33409,-0.35959,-0.13002,0.073995,0.02301,0.12511,0.048604,-0.10449,0.45654,0.35464,-0.66564,-0.76763,0.15064,0.89029,-0.027969,-0.23204,-0.078959,-0.053488,0.38006,0.6097,-0.28308,-0.5381,-0.71671,-0.028018,0.023047,0.83933,0.32925,-0.053464,-0.028072,-0.079063,-0.13,-0.43601,-0.33401,0.3291,0.38011,0.17614,0.25263,0.1506,0.43104,-0.002558,-0.69119,-0.25749,0.023047,-0.20654,-0.053427,0.12512,-0.15541,-0.38504,0.22696,0.12497,0.30362,0.4822,-0.33407,-0.23208,-0.181,1.0689,0.15072,-0.41048,-0.1046,-0.43618,-0.2066,-0.74216,-0.58915,-0.18107,1.1709,1.8341,0.30375,0.15061,-0.43621,-1.0993,-0.66565,-0.79318,-0.66565,-0.18108,0.35464,0.60976,1.069,0.81377,0.76263,-0.18112,-0.81871,-0.76763,-0.53812,-0.10455,0.2016,0.27813,0.099693,0.30368,0.12499,0.022961,0.45666,-0.18101,-0.41063,-0.41064,0.12507,0.023121,0.66091,-0.027876,0.20155,-0.46171,-0.25762,-0.51263,-0.41062,-0.15555,0.12505,-0.18095,-0.12982,0.30373,1.0942,0.60961,-0.13007,-0.56362,-0.027944,0.40557,0.45666,-0.25751,-0.89509,-0.25743,0.81375,0.32905,-0.028042,-0.76769,-0.30855,-0.053531,-0.38511,-0.12998,0.43123,0.30369,0.32905,0.43106,0.25255,-0.30854,-0.30853,0.099546,0.22709,0.099619,0.099693,-0.23193,0.099442,-0.002607,-0.10458,-0.027895,0.89037,-0.30856,-0.15558,-0.43613,-0.30844,0.12512,0.38007,0.66069,-0.43609,-0.99722,-0.15555,0.27804,0.09957,0.1251,0.023145,0.22717,0.60965,0.27804,-0.10454,-0.23204,-0.18102,-0.002491,0.40561,0.96691,0.22726,-0.41051,-0.5892,-0.71679,-0.28315,-0.30852,0.074062,-0.079045,0.25259,0.30368,0.76285,0.71185,-0.25759,-0.51272,-0.56365,-0.10445,-0.079021,0.25251,-0.30854,-0.46156,0.71184,0.83944,0.17606,-0.079081,-0.35962,-0.43609,-0.002503,-0.18107,-0.10452,-0.10449,0.04861,0.35473,0.63512,0.25256,-0.25754,-0.61465,-0.4871,0.048525,0.12508,0.45674,0.32918,0.50762,-0.028054,-0.61465,-0.66566,-0.89513,-0.20651,0.96677,1.1454,0.099564,-0.71661,-0.66561,0.25249,-0.15556,1.1198,-0.61462,-0.20648,0.074051,0.27806,-0.078984,-0.25748,-0.23201,-0.18105,-0.18101,0.8393,0.43117,0.048585,-0.002503,0.27808,-0.56362,-0.56358,-0.53809,-0.053586,-0.3596,0.55873,0.17612,0.45666,0.35458,-0.027969,-0.30854,-0.053372,0.074062,0.45661,-0.00251,-0.15549,-0.20652,0.12508,-0.079008,-0.18104,0.38016,0.12512,0.074062,-0.20663,-0.79323,-0.23196,0.96688,0.9413,-0.15556,-0.74218,-0.25752,-0.43604,-0.053439,0.022998,0.35458,0.17604,0.074062,0.17604,0.48213,0.12508,-0.002381,-0.053372,-0.078953,0.27805,-0.33412,0.073984,-0.10451,-0.5381,-0.48708,0.023023,0.48221,-0.002387,-0.15547,-0.20658,-0.053586,-0.05347,-0.18099,-0.15549,0.50768,0.5332,0.38018,-0.053446,-0.053513,0.8647,-0.25761,-0.53813,-0.89521,-0.9207,0.30363,0.60974,0.81382,0.35469,0.074062,-0.6657,-0.79325,-0.18105,0.04858,-0.12997,-0.053495,0.35465,0.27815,0.25263,1.0688,0.32902,-0.05347,-0.18097,-0.43604,0.35465,-0.48716,-0.3851,-0.56362,-0.46154,-0.15549,1.0433,1.2219,0.50771,-0.46161,-0.20655,-0.25759,-0.30858,-0.10451,0.17611,-0.23194,1.1199,0.63522,-0.33407,-0.61465,-0.69118,0.17603,0.17608,0.17612,-0.053433,-0.18099,0.074013,0.78822,0.43115,-0.28298,-0.33409,-0.20656,-0.23202,-0.41054,0.55879,-0.23196,-0.10458,-0.28313,-0.18108,-0.51258,0.32915,0.30357,0.66078,-0.12996,-0.027895,0.27818,0.25253,-0.18111,-0.23208,-0.027931,-0.48714,-0.69119,-0.41061,1.2219,0.96688,0.1506,-0.48715,-0.41056,-0.33403,-0.25753,-0.15557,-0.028066,0.27803,0.38013,-0.30836,-0.41043,-0.25751,-0.053513,0.45662,0.12505,-0.002485,0.048518,-0.25754,0.048531,0.22717,0.25269,-0.20658,0.15051,-0.15557,-0.15551,-0.35957,-0.20653,0.22713,-0.002412,-0.15543,-0.35953,0.02301,0.71163,0.71174,0.15059,-0.66565,-0.66567,0.63526,0.32915,-0.38502,-0.48701,-0.10454,-0.002607,0.2015,-0.181,-0.46154,-0.002467,0.43117,0.074118,0.30371,0.048585,0.30356,0.35456,0.20153,-0.10455,-0.46159,-0.30855,0.32915,0.17612,-0.10441,-0.28305,-0.23209,-0.20655,0.63527,-0.027944,-0.18103,0.43115,0.17607,-0.13001,-0.33404,-0.15548,0.27806,-0.079033,-0.13002,-0.3595,0.023059,0.89023,0.73724,-0.027944,-0.43604,-0.002461,-0.053555,-0.13007,-0.25753,-0.38499,-0.18103,0.099497,-0.002503,0.074093,0.32925,-0.30846,-0.25756,-0.02806,0.074062,0.96683,0.074026,-0.13008,0.099515,-0.23205,-0.12995,-0.385,-0.12999,-0.053525,0.55865,0.023078,0.17612,-0.48706,-0.23202,-0.23202,-0.053482,0.25259,0.25257,-0.028018,-0.23202,0.30365,0.32913,0.25256,0.15055,-0.28303,-0.53807,-0.33399,1.2219,-0.15557,-0.25757,-0.51259,-0.18101,0.53318,0.76271,-0.28304,-0.64007,-0.38502,-0.028018,-0.10457,-0.079021,0.25259,0.38013,0.55876,0.15057,-0.18096,-0.23198,-0.43604,0.32908,-0.00257,-0.028011,0.048598,-0.2065,0.53319,0.35461,0.048525,-0.38509,-0.48708,0.1761,-0.13005,-0.078947,-0.35953,-0.30853,-0.30857,0.30362,-0.053439,0.099588,0.45666,0.22707,0.6607,0.25261,0.20159,-0.56359,-0.81866,-0.38507,-0.18104,-0.28298,0.27815,0.55862,0.40555,-0.027974,0.02309,-0.20647,-0.181,-0.20655,0.20161,-0.20645,0.023035,0.38004,0.43105,-0.002443,-0.38499,-0.51253,-0.12998,0.022998,-0.15553,-0.053482,0.048573,0.63521,0.27807,-0.18101,-0.027987,-0.027962,0.023035,-0.1555,-0.053495,-0.18098,0.02309,-0.028005,-0.079033,-0.028018,-0.078972,0.17609,0.25264,0.17608,0.43113,0.78837,-0.28302,-0.41063,-0.2321,-0.33411,0.45667,-0.43608,-0.53807,0.12504,0.02309,-0.027907,0.35469,0.25254,0.32907,0.32912,-0.20652,-0.35956,-0.002479,0.023078,0.074062,-0.23198,0.38022,0.3291,0.048487,-0.28307,-0.66569,-0.56363,-0.38506,0.45667,-0.15547,-0.027889,-0.053464,0.17605,-0.002491,0.68626,-0.027993,-0.43616,0.12499,0.27808,-0.28305,-0.48697,-0.41044,-0.078917,0.5587,0.35461,0.12504,-0.35959,-0.20658,-0.079014,-0.028011,0.43119,-0.33398,-0.05347,0.17601,-0.25753,0.20163,-0.078959,0.023029,0.22707,-0.41053,-0.35956,-0.078966,0.099521,0.63518,-0.15555,-0.078953,0.20164,0.1761,0.2781,-0.28302,0.048647,-0.38505,0.15056,-0.30863,-0.15559,0.50765,-0.25751,0.074013,-0.002472,-0.002374,-0.053409,-0.18098,0.023029,0.022998,-0.18103,-0.10451,0.22714,-0.002461,0.78827,0.048549,-0.30855,-0.18103,-0.23206,0.099491,0.048536,-0.053451,-0.15547,-0.053476,0.048518,-0.1045,-0.027907,-0.078935,0.074013,0.073977,-0.18102,0.71183,0.7883,0.048494,-0.5637,-0.76769,-0.436,-0.25745,-0.027993,-0.079063,0.15052,0.25257,0.53317,-0.002454,0.25264,-0.43601,0.30375,-0.43602,-0.51263,-0.079093,-0.13002,0.15054,0.048512,0.099564,0.048585,0.27812,-0.027969,-0.078984,0.94134,0.25257,0.1506,-0.41058,-1.1758,-0.23207,-0.20659,-0.4871,0.074136,0.38018,1.3239,0.58411,-0.33407,-0.56362,-0.35959,-0.18103,0.048555,0.074069,-0.30847,0.43124,0.048555,0.68617,0.63521,-0.66565,-0.89521,-0.51265,0.12497,0.27812,-0.053446,0.15065,0.023114,0.27803,0.20153,0.074013,-0.30856,0.074033,-0.10451,-0.15543,-0.053378,0.023108,0.20158,-0.1556,0.099559,-0.25756,-0.43609,-0.002461,0.76276,0.53321,-0.33405,-0.66561,-0.10452,0.5076,0.35461,-0.64011,-0.5381,-0.28303,-0.027969,-0.15549,0.048585,0.60977,0.3546,0.32907,-0.002491,0.20168,-0.51257,-0.4871,0.4311,-0.18106,-0.13001,0.15062,0.60973,0.78821,-0.23197,-0.86971,-0.38504,-0.43606,-0.51266,-0.35964,-0.078947,-0.002412,0.20156,1.4769,0.40566,-0.41058,-0.56365,-0.41056,0.074033,0.20161,0.09965,0.023108,0.20155,0.17601,0.2271,-0.28302,-0.20652,-0.002448,0.2526,-0.1045,-0.053476,-0.38511,1.1198,0.32907,-0.35956,-0.84414,-0.8951,-0.002467,0.22705,0.20165,-0.2065,-0.053446,0.45664,1.4259,0.27805,0.048494,-0.48713,-0.84422,-0.48715,-0.002467,0.12516,-0.027889,0.099546,0.3036,-0.20651,-0.33405,0.45665,-0.053488,-0.02798,0.22711,-0.078892,0.17614,-0.027987,0.2015,-0.028029,0.099564,-0.053433,-0.76761,-0.232,-0.05347,0.5077,-0.18098,-0.13005,0.58409,0.17601,-0.15553,-0.53807,0.25267,0.76282,0.1251,-0.43607,-0.46155,0.09957,0.30351,0.15051,-0.20653,-0.181,-0.027944,0.27808,0.55869,-0.48703,-0.58899,-0.15551,0.022961,0.22705,-0.078959,0.048573,0.35464,0.12502,-0.079057,-0.18103,-0.23195,-0.20642,-0.23204,-0.15553,-0.56365,-0.18106,0.38016,0.48219,0.20159,0.25263,0.048604,-0.053482,-0.028042,0.074051,0.22708,0.12507,-0.18097,-0.027974,-0.13,0.074087,-0.027956,-0.027987,-0.13007,-0.20658,-0.2065,-0.33402,-0.002381,0.12507,0.43118,0.73731,-0.15548,-0.13005,-0.18113,-0.38511,0.27813,-0.46158,-0.25753,0.2781,0.12504,0.22711,-0.28295,0.074111,0.023017,-0.078984,-0.46155,-0.33404,0.048512,0.45659,0.17609,0.25269,0.023121,-0.2065,-0.2576,-0.28305,-0.13,0.12509,-0.002503,-0.20655,0.45671,0.023065,0.27814,-0.002503,-0.20662,-0.28305,-0.10445,-0.30849,-0.23203,0.048512,-0.181,-0.10443,0.17615,0.48215,0.27803,0.099515,-0.13002,-0.053421,0.35468,0.30361,-0.18103,-0.25757,-0.53805,0.1251,-0.053549,-0.20652,-0.181,-0.30851,0.1506,0.30361,0.074038,-0.15547,-0.002412,0.048573,-0.079093,0.099521,0.099552,0.38014,0.023054,-0.13001,-0.30854,-0.20647,-0.28295,-0.51259,0.17601,0.73725,0.20156,-0.20653,-0.23204,-0.10452,-0.28306,-0.41055,-0.41046,0.17617,0.71168,0.25261,0.074062,-0.13002,-0.20661,0.53315,-0.07899,-0.23199,-0.23193,-0.30854,-0.13009,-0.13004,-0.20652,-0.12999,-0.002436,0.40563,0.074069,0.40571,0.58425,-0.002436,-0.13012,-0.028005,-0.027962,-0.20644,-0.53806,0.17607,-0.28306,-0.48706,-0.58907,-0.10448,0.3545,0.17604,0.43113,0.48217,0.48215,0.55875,-0.20649,-0.20647,-0.30843,-0.69113,-0.002595,0.3035,-0.18105,-0.35953,-0.28298,0.1251,0.048585,0.20164,0.023072,-0.0535,1.0943,0.32911,-0.46159,-0.53807,-0.25752,0.15057,-0.15552,0.17611,0.023078,-0.078953,0.099485,-0.028029,-0.38509,-0.38505,-0.33405,0.25261,0.40566,0.94134,-0.41049,0.0741,0.048487,0.023035,-0.10449,-0.74215,-0.64014,-0.079021,-0.027974,0.20159,0.09965,0.22713,0.22702,-0.053482,0.048506,-0.053488,0.07402,0.35462,-0.25742,0.07416,-0.18092,-0.18103,-0.10463,-0.28309,-0.18106,-0.41064,-0.30854,0.68624,0.96688,0.78833,-0.38504,-0.20653,-0.35967,-0.64021,-0.79319,-0.53811,-0.10446,0.71175,0.32917,0.099632,0.17615,-0.002491,-0.053592,0.023005,-0.027962,-0.43604,-0.25751,0.12505,0.22711,0.32916,-0.33405,-0.053464,0.12503,-0.18104,-0.15553,-0.23205,-0.38506,0.25263,-0.38504,0.22716,-0.18095,-0.15549,-0.00257,-0.10455,0.074057,0.53321,0.074081,0.43112,-0.23204,-0.002461,0.048634,-0.027969,-0.079081,-0.13004,-0.18101,-0.41059,-0.28302,0.15059,0.48222,0.12518,-0.053409,-0.10452,0.20149,0.099552,-0.23209,-0.10456,-0.053446,0.20161,-0.25748,-0.33396,-0.30847,-0.28301,0.022961,0.048482,-0.18106,-0.15549,0.66074,0.45661,0.86481,0.30366,-0.38502,-0.48706,-0.43614,-0.25758,-0.13003,-0.53812,-0.053451,0.48218,0.91583,-0.053421,-0.4615,-0.20652,0.048415,-0.053562,0.023035,-0.28306,0.099613,0.58427,0.17609,-0.30855,-0.25749,0.55871,0.17594,-0.35964,-0.66561,-0.41053,0.48219,0.20156,0.17612,-0.20649,-0.41047,-0.02795,0.22697,-0.028054,-0.28304,-0.15547,0.074062,0.50769,0.30361,-0.05347,-0.23196,0.25263,0.17598,-0.079014,0.074057,-0.12998,-0.23204,-0.181,-0.28304,0.30368,-0.23196,0.17606,0.32901,-0.13002,0.023047,-0.43607,-0.41053,0.20153,0.048549,0.30366,0.2782,0.17611,0.17602,-0.027993,-0.41059,-0.23201,0.12507,0.099497,-0.10454,0.12509,0.40575,-0.027871,-0.23202,-0.25754,-0.81868,-0.33407,-0.028018,0.27805,-0.002485,0.1506,-0.053433,0.25267,0.86473,0.30358,0.35465,-0.4871,-0.81871,-0.3596,-0.18102,0.099637,0.30377,0.17619,-0.053562,-0.3086,-0.18105,-0.48712,-0.33405,0.50768,0.22708,0.27815,0.17615,-0.13001,0.30354,0.074075,-0.41059,-0.69112,-0.33404,0.40561,0.2526,0.71176,-0.12997,-0.23199,-0.13005,-0.35959,-0.23204,-0.43606,-0.232,0.32911,0.17615,0.40567,0.38016,0.5587,0.73713,-0.51268,-0.92072,-0.86969,-0.94622,-0.053458,0.83934,0.45673,-0.18094,-0.30854,0.20152,0.38016,-0.18105,-0.51259,0.099595,0.53316,0.38013,-0.30856,-0.33401,-0.46155,-0.18107,-0.30855,0.27809,0.17609,0.12512,0.45664,-0.25751,-0.10448,-0.20646,-0.12998,0.45654,0.073971
