-0.053495,-0.002479,0.023029,0.023017,0.023029,0.15054,-0.00243,-0.053458,-0.10447,-0.12994,-0.10448,-0.053495,0.023054,0.048518,0.074026,0.074038,0.048525,0.048543,-0.002423,-0.078966,-0.053464,-0.053506,-0.002472,0.023035,0.023023,-0.002454,-0.05347,-0.027969,-0.053433,-0.053451,-0.053451,-0.027993,0.023023,0.15055,0.023023,0.099534,0.074051,0.048561,-0.002448,-0.12994,-0.18098,-0.18103,0.099534,0.12504,-0.053488,-0.078984,0.074051,0.074062,-0.10445,0.023072,-0.02798,-0.027993,-0.053476,-0.002491,0.099534,0.023029,-0.053482,0.023041,-0.027938,-0.078953,-0.002467,-0.181,-0.002479,-0.027974,0.0485,0.20156,-0.053476,0.048561,-0.15545,-0.002436,-0.078966,0.048518,0.09957,0.048518,0.048512,0.074026,0.099546,-0.027944,0.023059,-0.078947,-0.10449,0.02301,-0.053458,-0.053495,0.12505,0.023041,0.023029,0.074062,-0.10445,-0.002454,-0.05347,0.023017,0.09954,0.048531,0.023017,-0.027993,0.074069,0.074057,-0.027944,-0.12994,0.048549,-0.002472,-0.078972,0.048494,-0.027998,0.023047,0.099564,-0.027962,-0.078941,-0.027962,0.074044,-0.02798,0.074038,0.023041,0.023005,-0.002479,0.099559,-0.027956,-0.027938,-0.078941,-0.002454,-0.002491,0.023035,-0.027993,0.09954,0.048518,-0.078966,0.074038,-0.053439,-0.12998,-0.10446,0.12504,-0.027969,-0.002491,0.048506,0.048549,0.023035,-0.053464,-0.053446,-0.053433,-0.078959,-0.053506,0.15058,0.048512,0.07402,0.074038,-0.02798,-0.078972,-0.02795,-0.027944,-0.002443,-0.002491,0.023041,-0.027974,-0.002479,-0.027969,-0.10449,0.074062,-0.053458,-0.053446,-0.15548,-0.10452,0.074057,-0.02798,-0.00251,0.22707,0.099552,0.023041,-0.053421,-0.30848,-0.078984,0.023023,-0.053482,0.22709,-0.002467,0.099534,0.09954,-0.15549,-0.027969,-0.053451,-0.15549,-0.18103,-0.002461,0.099564,0.074008,0.17603,-0.027962,0.048567,-0.10444,-0.18095,-0.25751,0.09954,-0.002467,0.074038,0.20156,0.099515,-0.078996,-0.10447,-0.053451,-0.10443,-0.15547,-0.053495,-0.002479,0.15054,0.023023,-0.0535,0.17607,-0.053451,-0.027931,0.099619,0.12506,-0.25757,-0.28304,0.023065,0.17604,0.073995,-0.02798,0.12508,0.1506,-0.002405,-0.25751,-0.15555,-0.07899,0.15058,0.12502,0.099564,-0.027956,-0.13002,0.048543,-0.027944,-0.38504,0.48218,0.53321,-0.20657,0.022974,0.074038,-0.35955,-0.33404,-0.078923,0.32919,-0.12999,-0.15554,0.17605,-0.46165,-0.13007,1.2219,0.55872,0.023035,-0.46156,-0.38499,-0.41057,-0.25757,0.074075,0.048525,-0.028036,-0.027987,0.048525,0.17609,0.023096,0.17614,0.40568,0.15055,-0.20657,-0.30855,-0.20657,-0.13002,0.30368,0.35464,0.32917,-0.76765,-0.20653,0.83927,-0.10452,0.023072,-0.002461,-0.48713,-0.56362,-0.25754,-0.053451,-0.10448,0.32913,0.73726,0.12506,-0.002443,-0.15551,-0.002528,0.12504,0.12506,-0.30855,-0.334,0.15064,0.83928,-0.15551,-0.25755,-0.46167,-0.10451,0.099559,0.12506,-0.078953,-0.002423,0.048567,0.12507,-0.20652,0.20161,-0.079063,-0.20656,0.58422,-0.1555,-0.18097,0.43118,-0.15554,-0.15557,-0.053495,-0.28301,-0.07899,0.73725,-0.53814,-0.002479,0.40569,-0.33401,0.023084,0.048531,-0.30854,0.32907,-0.2065,-0.43613,0.53317,0.50772,-0.18103,-0.28307,-0.078972,-0.20655,-0.027974,-0.18101,0.38017,0.20157,0.074026,0.45669,-0.74211,-0.078953,-0.002405,-0.10453,0.55858,-0.64015,-0.71663,0.78825,-0.078966,-0.18101,-0.10444,-0.25751,-0.20651,0.12505,0.4821,0.12504,-0.027969,-0.20658,0.17611,0.40572,0.58424,-0.28302,-0.079014,-0.0535,-0.38508,-0.25751,-0.46159,0.023035,0.2781,0.22713,-0.053482,-0.15549,-0.002461,0.73726,-0.10453,-0.30853,-0.10454,0.023047,-0.43608,0.35461,0.35468,-0.18097,-0.28306,-0.3596,0.048555,0.27811,0.074044,-0.027962,-0.079014,0.048549,0.023059,0.023096,-0.23201,-0.027998,-0.10452,0.048525,0.15057,0.09957,0.099595,-0.13,0.099595,0.023072,-0.13002,-0.46157,-0.15551,0.40565,-0.23205,-0.002467,0.3546,-0.2065,-0.69113,0.71182,0.94135,-0.15554,-0.6402,-0.66571,-0.20652,0.099564,0.20163,0.048531,-0.027969,-0.15548,-0.1555,-0.41061,0.43117,1.1199,-0.18107,-0.10453,-0.33402,-0.002436,0.83932,-0.58908,-0.20652,-0.20656,-0.23204,-0.13001,-0.25754,-0.027993,0.17606,0.22713,-0.10449,-0.15546,-0.078953,0.27812,0.12506,0.099583,0.048549,-0.18105,-0.18105,-0.027993,-0.10447,-0.20649,-0.027969,-0.002491,-0.38508,0.50772,0.83928,-0.28306,-0.28299,0.22713,-0.10452,-0.53811,-0.38507,0.099552,0.17605,0.15058,0.43117,-0.23203,-0.33409,-0.13001,-0.10446,-0.027931,0.074081,0.099546,0.12501,0.022998,0.099559,0.15056,0.1251,-0.15544,-0.18097,-0.027931,-0.078972,-0.35956,0.074057,0.099521,0.099534,0.074013,-0.3341,0.32915,0.22712,-0.56359,-0.35953,-0.0535,1.5535,0.2271,-0.38514,-0.61471,-0.38506,0.048561,-0.18099,-0.10444,-0.002461,0.099595,0.20159,0.023059,-0.15555,0.12504,0.074038,0.023041,-0.12994,0.048555,-0.20652,-0.1045,0.048561,-0.002503,-0.053513,0.15054,-0.027938,-0.12998,-0.12997,-0.053458,0.17609,0.50774,-0.23204,-0.002491,-0.25759,-0.25759,-0.23204,-0.28307,0.3802,0.074081,-0.10445,0.20158,0.20163,0.25262,0.32908,-0.002472,-0.18103,-0.35957,-0.20649,0.76281,-0.078972,-0.38511,-0.25756,-0.027987,0.048555,0.17606,0.023035,-0.027969,-0.10447,0.0741,-0.18099,-0.15557,0.15057,-0.05347,0.30363,0.71175,-0.64015,-0.20654,0.048567,-0.33403,-0.078972,-0.027987,0.2271,0.099546,-0.18101,-0.1045,-0.10451,0.17606,-0.078972,0.12512,-0.20651,-0.10449,0.074081,-0.053482,0.023029,-0.13002,-0.027998,0.2271,0.20163,0.074081,-0.28305,-0.30856,-0.18101,-0.13002,0.099552,0.12504,0.15059,-0.10448,-0.12996,-0.002436,0.023065,-0.027969,0.43113,0.023029,-0.079002,0.099534,0.12506,0.074038,-0.28302,-0.30852,-0.15549,-0.1555,-0.027969,0.30365,0.099497,0.15055,-0.10449,0.048525,0.0741,-0.002436,0.17609,-0.10449,-0.002472,-0.002461,-0.079002,-0.18101,0.099546,0.12506,0.023059,-0.078959,0.023072,0.12507,-0.002467,-0.35959,-0.25758,0.48216,-0.027987,0.4312,0.074106,-0.10445,-0.28303,0.20152,-0.28304,-0.33409,-0.10449,0.09954,0.099552,0.023054,0.15059,-0.15543,-0.10446,0.099613,0.30358,-0.002485,-0.002528,-0.15553,-0.027974,0.15056,-0.078947,-0.053451,-0.10447,0.023005,-0.078966,0.023035,-0.078977,-0.13001,0.12509,0.023041,0.20162,0.15059,-0.35958,-0.18103,0.12507,0.12507,0.35463,-0.13002,-0.15549,-0.23205,-0.12998,-0.053421,0.074062,-0.027987,-0.1555,0.68621,-0.028005,-0.10452,-0.002472,-0.002448,0.099613,-0.25752,-0.027938,-0.053537,-0.15553,-0.027987,0.07402,-0.002448,0.023059,0.12507,0.20163,-0.18098,0.074051,-0.20657,-0.002461,0.099577,0.38012,-0.053537,0.023059,-0.15548,-0.20648,-0.12998,0.023041,0.02301,0.023072,-0.027962,0.048536,0.22705,-0.002497,-0.078972,-0.027913,-0.15548,0.20162,-0.18105,-0.13002,-0.002485,0.20157,0.35461,-0.028005,-0.28302,-0.15551,-0.12994,-0.027956,0.25261,0.35462,-0.079026,-0.13001,0.099515,0.099601,-0.15553,-0.10447,0.048561,-0.232,-0.027987,0.023047,0.074069,0.15051,-0.053482,0.15055,0.2271,-0.053451,-0.078923,-0.35953,-0.28308,-0.078996,-0.10452,0.074038,0.20159,0.15056,-0.078953,-0.12998,-0.10447,0.023065,-0.10449,0.2016,0.023035,-0.3596,-0.053506,0.30365,-0.079021,-0.078959,-0.10443,0.53321,-0.15555,-0.20652,-0.25757,0.02298,0.15056,0.32916,-0.10447,-0.10447,-0.15549,-0.027931,0.023017,0.023059,0.15059,0.048506,0.074026,0.074038,0.20158,-0.10449,-0.30849,-0.15551,-0.027974,0.32914,0.2271,-0.20655,-0.10453,-0.13,0.22712,0.25266,-0.20649,-0.30856,-0.053506,0.12507,0.074081,0.022998,0.17606,-0.13,-0.25753,-0.12998,0.12515,-0.027938,0.27808,0.023017,0.2016,-0.00251,-0.48714,0.12509,0.38016,-0.30851,-0.283,0.074093,0.12502,0.099564,-0.053488,0.022998,-0.002467,-0.181,-0.15554,-0.10449,0.30369,0.17608,-0.078984,-0.23203,-0.10452,0.2016,0.099559,0.0741,-0.027962,-0.18105,-0.12997,0.023035,0.09954,-0.002472,0.074081,-0.002479,0.20156,0.07402,-0.053495,-0.20648,-0.053446,0.023078,0.023054,-0.002461,-0.28305,0.20158,0.02298,-0.053506,-0.053495,0.074075,-0.02792,0.0741,-0.078977,0.07402,0.15056,0.22706,-0.13001,-0.13,-0.12997,0.023059,-0.10442,-0.13001,0.099564,-0.13001,0.074062,-0.028054,0.15052,-0.053464,0.15062,-0.027969,0.099601,-0.002467,0.12507,-0.23202,-0.33409,-0.028018,0.43119,-0.28305,-0.00243,0.40568,0.22715,-0.38508,-0.18107,-0.23204,-0.18103,-0.002491,0.15058,0.27811,0.17611,-0.18096,-0.20649,-0.2065,0.022998,0.17607,0.27811,-0.1045,0.023017,-0.10451,0.15055,-0.027925,-0.078959,0.023059,0.2526,0.074057,-0.23202,0.023005,0.023041,-0.053476,-0.10452,-0.002454,0.30368,-0.18098,0.023029,-0.078996,0.023017,-0.002467,-0.13005,0.17608,-0.002479,0.048561,-0.10445,0.15057,-0.078984,0.022998,0.023041,0.074062,0.12504,-0.002448,-0.10449,-0.00243,-0.053439,-0.20654,-0.079021,-0.13001,-0.027993,0.20156,0.43114,0.17609,0.30366,-0.30855,-0.25748,-0.15551,-0.15554,-0.002448,-0.002497,0.15053,0.12504,0.15059,0.0741,0.023072,-0.078935,-0.002448,-0.18105,-0.078972,-0.002491,0.30358,0.074044,-0.10451,0.15057,-0.20647,-0.078972,-0.027944,-0.23205,-0.053506,-0.079002,0.023005,0.12505,0.22714,-0.18103,0.32918,-0.18098,0.048543,-0.07899,-0.181,0.048543,-0.079014,0.023023,0.048561,0.12509,0.20162,-0.10446,0.074044,-0.10454,-0.18101,-0.002503,-0.02798,0.099503,0.12507,-0.05347,-0.10448,-0.078935,-0.078977,0.12505,-0.10445,0.074075,-0.053464,-0.079014,0.20156,-0.002461,-0.13002,-0.20647,-0.053476,0.12506,-0.00243,-0.02798,-0.028018,0.074033,0.074062,0.12504,-0.002461,-0.23199,0.0741,-0.02798,-0.027974,-0.027956,0.048518,0.22707,-0.078972,-0.28303,-0.1045,0.20164,0.25262,-0.20655,-0.23204,-0.027974,-0.002497,0.048543,0.048555,0.35463,0.048567,-0.23195,-0.20651,-0.15552,-0.053476,0.40563,0.25256,-0.13005,0.38013,-0.02795,-0.2575,-0.23196,-0.12997,-0.027993,0.074013,0.12504,0.12505,0.074057,-0.027962,-0.15549,-0.053458,-0.10445,-0.053482,0.023023,0.048536,0.15054,-0.002467,-0.18105,-0.078984,0.12508,0.27812,-0.078935,-0.18099,0.023035,0.04858,-0.15552,-0.00251,-0.10451,0.12509,0.12507,-0.13002,-0.053446,-0.078984,0.048512,-0.232,-0.002467,0.45666,-0.002497,-0.027969,0.12508,-0.053464,-0.25747,-0.20652,-0.079026,-0.43608,0.38011,0.48214,0.074026,-0.002461,-0.18101,-0.053476,0.023084,-0.12996,-0.002472,0.15057,-0.053451,-0.053495,0.074057,0.074062,0.15056,-0.002491,-0.18097,-0.2065,0.12504,-0.053488,0.15058,0.30357,0.22707,-0.181,-0.18103,-0.20647,0.048622,-0.15548,0.17603,-0.1045,0.074062,0.048512,0.17604,-0.027969,-0.053451,-0.10447,-0.002436,0.40568,-0.002503,-0.027993,-0.10447,-0.10455,0.20151,-0.00243,-0.25751,-0.053433,0.048622,0.15057,-0.079021,-0.079014,-0.053525,-0.13002,0.12504,0.35464,0.09957,-0.053433,-0.18097,0.099564,-0.33405,0.048536,0.048531,0.099515,-0.079033,0.074062,0.15057,-0.10447,0.074093,0.023078,-0.027987,-0.002443,-0.027956,0.022986,0.074026,0.22707,0.09957,-0.28304,-0.10445,0.25267,0.22708,0.15058,-0.28309,-0.23207,-0.079008,-0.053488,0.35462,-0.027956,-0.18095,-0.027925,-0.027993,-0.1045,-0.46161,0.45662,0.78824,-0.23205,-0.078996,-0.078953,0.12509,-0.15549,-0.23207,0.17609,-0.002454,-0.053495,-0.002454,0.22707,-0.18098,-0.181,-0.002399,0.048567,0.02298,-0.002485,0.048506,0.023035,0.20161,0.099583,-0.078984,-0.12995,-0.13,-0.02798,-0.1045,-0.13002,0.04858,0.20159,-0.13001,-0.002467,0.12507,-0.18098,-0.25748,-0.25751,-0.053495,0.60967,0.43113,-0.002491,-0.13009,-0.027998,-0.25749,-0.12993,-0.002423,-0.002412,0.35461,-0.053482,-0.18105,-0.053544,0.048525,0.22707,0.2526,-0.12995,-0.15545,-0.18098,-0.15551,-0.027974,0.12507,-0.002491,-0.028023,0.099521,-0.027956,-0.053482,-0.078928,-0.25747,0.15056,0.023047,-0.18101,0.048506,-0.002485,0.048549,0.27812,-0.20653,-0.00243,0.22712,0.074026,-0.053488,-0.15553,-0.15556,-0.28306,-0.078972,0.22711,-0.12996,0.12513,0.099559,-0.10453,-0.027993,-0.078972,-0.13,-0.002485,0.074062,0.074081,0.048585,0.22713,-0.20653,-0.028042,-0.10452,-0.15551,-0.2065,0.074069,0.12505,0.1761,0.023108,-0.027938,-0.20652,-0.028042,0.25265,-0.1045,-0.20655,0.099515,0.074051,0.048536,-0.05347,-0.10447,-0.027956,0.048531,0.25262,-0.20651,0.023017,-0.002461,-0.002479,0.12506,0.048561,-0.053439,-0.15547,-0.20655,-0.078977,0.15057,-0.10449,-0.028023,-0.002454,-0.079021,-0.002443,0.074069,0.074093,-0.053488,-0.12998,-0.002461,0.023017,-0.053519,0.099528,0.22712,-0.053433,0.048573,-0.0535,-0.079033,-0.15549,0.099528,-0.15551,0.15053,-0.027931,0.30364,0.099583,-0.181,-0.10447,-0.15557,0.15057,-0.18101,0.15056,-0.13,0.023017,0.15059,0.12509,0.04858,-0.13,0.074038,0.2526,-0.23205,-0.079002,0.048573,-0.10445,-0.002485,-0.18101,-0.12998,-0.15548,0.30363,-0.002497,-0.181,-0.002516,0.20158,0.099564,-0.13002,-0.078947,-0.07891,0.22714,-0.25757,-0.053464,0.48213,-0.002503,-0.028023,-0.027956,-0.002467,-0.20649,-0.18097,-0.28299,-0.053464,0.074069,0.2271,0.048512,0.17606,0.15051,0.048536,-0.002454,0.048616,-0.078898,-0.43608,0.12504,0.25258,-0.43612,-0.18103,0.023029,0.20161,-0.053495,-0.053415,-0.027962,-0.053476,-0.13002,0.17607,0.22707,-0.027993,0.1251,-0.053495,-0.15546,-0.181,-0.078972,-0.027998,0.12506,-0.13,0.22708,-0.10453,-0.58914,0.27815,0.35468,-0.12999,-0.25749,-0.13003,-0.07899,-0.053513,-0.002503,-0.027993,0.35461,0.43117,0.048592,-0.51252,-0.33401,-0.002497,-0.079026,0.074013,-0.18101,0.15057,0.25258,0.22712,-0.13001,-0.078947,-0.15549,0.02309,-0.027993,0.20161,0.074013,-0.053544,-0.18101,-0.18103,0.048604,-0.25746,0.023059,0.07402,-0.053513,-0.053451,-0.002516,0.12501,-0.027956,0.12511,0.048585,0.074087,-0.053464,-0.10452,-0.079021,-0.053476,0.3036,0.32912,-0.20655,0.048549,-0.078984,-0.25746,-0.079002,-0.10452,0.17606,0.023047,0.43114,-0.15548,-0.28305,-0.25753,0.048549,0.17609,0.023047,0.55867,-0.13,-0.002497,-0.15553,-0.027993,-0.002448,-0.18102,0.15062,-0.10447,0.09957,-0.28304,-0.10451,0.15062,-0.053519,0.17606,0.17607,-0.10452,-0.35956,0.30369,0.17616,-0.053488,-0.18101,0.12502,-0.10453,0.023005,0.074044,0.023035,-0.00243,0.048598,-0.053464,-0.07899,0.5332,0.12507,-0.20653,-0.10454,-0.33404,-0.02798,-0.10444,-0.15548,-0.078977,0.15057,0.12503,-0.3341,0.2781,0.63523,-0.10448,-0.05347,-0.15547,-0.20647,-0.2065,0.048525,-0.23202,-0.02798,0.023005,0.25257,0.09957,0.12512,-0.05347,-0.10448,0.023054,-0.18105,-0.078984,0.099546,0.023054,-0.079021,0.15057,0.17606,-0.027969,-0.18097,-0.25751,-0.18103,0.048543,0.38017,-0.10452,0.074008,0.023017,0.17606,-0.078941,-0.002423,-0.02792,-0.10447,0.074062,0.15057,-0.10452,-0.56366,0.048487,0.4822,0.023084,-0.15546,-0.25753,-0.002467,0.17609,-0.053506,-0.13004,0.099503,0.12509,0.02309,-0.02792,-0.027913,-0.078959,-0.0535,-0.028018,0.15057,0.22705,-0.13003,-0.053451,-0.002479,0.074118,-0.18096,-0.12998,0.3291,-0.15552,-0.10449,-0.053513,-0.028023,-0.18101,0.27814,0.1506,0.02309,-0.232,-0.15553,0.074038,0.099534,-0.078996,-0.028018,0.074069,0.15059,-0.027925,-0.10448,0.074075,-0.027969,-0.1555,-0.053458,-0.002516,-0.15555,-0.027962,0.099613,0.15063,-0.18101,-0.28303,0.074026,0.20156,0.12505,-0.02798,0.20158,-0.027969,-0.10449,-0.283,-0.078959,0.27815,0.32912,-0.20658,0.048543,-0.053506,-0.028018,0.048536,0.074033,-0.33404,-0.25748,0.27815,0.12504,0.12507,-0.027969,0.22708,0.023041,0.048531,-0.053506,-0.10447,-0.15546,0.048543,0.17607,-0.053506,-0.053482,0.099552,0.30361,-0.10453,-0.05347,-0.12998,-0.053421,0.023072,0.17604,0.099515,-0.12998,-0.1045,-0.002497,-0.027944,-0.053482,0.074051,-0.002394,-0.078959,0.099546,0.17607,-0.07899,-0.002528,0.048518,0.048561,0.048518,0.048604,-0.078923,0.0741,-0.38507,-0.23206,0.38016,-0.10456,0.048506,0.023029,-0.51262,0.17609,0.40573,-0.027944,-0.078996,-0.23203,0.17609,0.17607,-0.002485,-0.13001,0.099588,-0.12995,-0.18101,-0.078996,0.22707,-0.078996,0.12504,-0.027993,0.099546,-0.053464,-0.027931,-0.002454,-0.15546,-0.181,0.099546,0.074062,0.023047,-0.15556,0.17609,0.074008,0.2526,-0.002448,-0.30852,-0.23199,0.099515,0.20158,-0.027993,0.048585,0.074057,-0.027931,0.048512,-0.02798,-0.283,-0.23198,0.32913,0.099552,0.074033,0.048525,-0.079008,-0.053513,-0.002443,0.099577,-0.23197,-0.078996,0.074062,0.048536,-0.002412,-0.079033,0.22709,-0.079051,-0.053488,-0.027987,-0.283,-0.078941,0.099559,0.38017,-0.23205,0.09954,0.15058,-0.13001,-0.053513,0.12508,0.099613,-0.15549,-0.10452,-0.053488,0.15056,0.22707,-0.002467,0.023029,-0.05347,-0.002448,-0.053451,-0.027913,0.07402,0.048531,0.074044,0.25257,0.023047,-0.13001,-0.15553,0.074075,-0.053451,-0.027962,-0.027974,0.30361,-0.002467,-0.079021,0.023017,-0.4616,0.15058,0.48221,-0.23198,-0.002454,-0.02795,-0.23203,0.099613,-0.053525,0.073977,-0.028018,0.2526,0.17606,-0.078935,-0.385,-0.30855,-0.078935,0.023047,0.023029,0.17603,0.25258,0.15059,0.023054,0.15055,-0.15548,-0.053506,-0.18097,-0.12999,-0.15553,0.12506,0.17607,-0.002443,0.20161,-0.10446,-0.20649,-0.20652,-0.10452,0.023023,0.048549,0.099515,0.099552,0.17607,-0.12998,-0.18098,0.25265,-0.028011,-0.18103,-0.027993,0.20157,-0.027993,-0.078953,-0.02795,-0.10447,0.023096,-0.053488,-0.18103,-0.002497,0.22712,0.15052,0.15056,0.15057,0.023065,-0.10446,-0.38499,-0.13,-0.13001,-0.027993,0.048555,-0.028018,0.12504,0.15056,0.22712,-0.027944,-0.23201,-0.25751,0.023017,-0.12997,0.048543,0.048525,0.55869,-0.002454,-0.15553,-0.30852,-0.25751,-0.02792,-0.002479,-0.053495,-0.43614,0.71173,0.71173,-0.18101,-0.13002,-0.35954,-0.15546,-0.20649,0.022998,0.099564,-0.13001,0.2271,0.30359,0.2526,-0.13002,-0.053439,-0.053433,-0.4616,-0.1045,-0.02798,0.099577,0.12509,0.12505,0.023017,0.048531,0.048561,-0.053427,-0.02795,-0.028018,0.15054,-0.18097,-0.10451,0.17604,0.15056,-0.027962,-0.15548,-0.15549,0.074069,-0.079008,0.1761,-0.23202,0.023072,0.09954,0.17607,-0.12999,-0.002479,-0.23199,-0.18102,0.12508,0.35464,0.27811,-0.30857,-0.15553,-0.18101,0.074062,-0.078935,-0.15544,0.32913,0.35459,-0.028011,-0.33406,-0.079021,0.023041,-0.078984,-0.10447,-0.2065,0.27818,-0.12998,-0.053525,-0.079008,0.12505,0.17602,0.15057,-0.053433,-0.15549,-0.027962,-0.33399,-0.10449,0.38014,0.20157,0.074069,-0.053531,-0.10455,-0.078972,-0.002448,-0.053451,-0.053409,-0.10445,-0.027969,0.074008,0.048512,0.12505,-0.002491,0.40566,-0.027962,-0.30852,-0.15547,-0.18099,0.12508,0.15062,-0.15553,-0.1045,-0.079021,0.023023,-0.078984,-0.053446,0.048592,0.12507,-0.078996,0.074069,-0.13001,0.12501,-0.0535,-0.10445,-0.002436,-0.181,-0.2065,0.38019,0.20156,-0.002485,-0.15549,-0.18105,-0.053482,0.17609,0.1506,-0.10452,-0.25748,-0.002454,0.09954,0.048555,0.048525,0.074033,-0.0535,-0.002454,0.048573,0.15061,-0.027938,-0.078959,0.15053,-0.053488,-0.18103,-0.028018,0.17607,-0.002461,-0.05347,-0.078935,-0.10448,-0.002448,-0.053488,-0.002491,0.048561,-0.1045,0.02301,0.2526,-0.15551,0.2271,0.02309,0.12509,0.073989,-0.2065,-0.078972,-0.079008,-0.002479,-0.15551,-0.028005,0.20163,-0.002418,-0.1045,0.023029,0.023047,0.074033,-0.053506,0.43113,-0.002497,-0.15547,-0.053446,-0.20648,-0.13,0.074044,0.048518,0.074026,-0.13002,0.12505,0.023059,0.17611,-0.078972,-0.10444,-0.25748,0.099515,-0.028005,0.15056,0.12501,-0.027987,0.074069,-0.078984,-0.002436,-0.053433,-0.05347,0.023041,-0.002461,0.048525,0.15052,-0.002472,0.048561,-0.002461,-0.10445,0.15063,-0.10446,0.20153,-0.002454,-0.23206,-0.13005,0.074002,-0.078984,0.30363,-0.43606,-0.15546,0.60973,-0.18102,-0.20647,-0.12998,0.27807,0.15052,-0.18101,-0.10454,0.048561,-0.078935,0.25263,-0.027974,-0.28306,0.099546,0.15054,-0.002503,0.3291,-0.027956,-0.41058,0.22718,0.20166,-0.05347,-0.027969,-0.10452,-0.13004,0.17603,-0.079026,0.099552,0.099619,-0.02792,-0.12995,-0.079026,0.12508,-0.1045,-0.053476,0.12504,0.074057,0.12504,-0.027974,-0.078904,-0.078984,-0.13002,0.17606,0.32914,-0.10452,-0.053525,-0.1045,0.07402,-0.053427,-0.053464,-0.25749,0.048512,0.023054,0.12509,0.023029,0.15053,0.02298,0.099552,-0.002461,-0.23197,-0.078935,0.099564,-0.078984,-0.12999,0.074002,0.074038,0.12504,-0.053476,0.09957,-0.078935,-0.027998,-0.02798,-0.13,-0.002472,0.048518,-0.078984,0.023054,0.023054,0.22713,0.048604,-0.12997,-0.079045,-0.002479,-0.079008,0.17605,0.074038,-0.25758,0.22712,0.099564,-0.18095,-0.027974,-0.1555,0.17606,0.074044,-0.028018,0.048536,0.048549,0.074106,-0.053446,-0.18095,-0.20651,-0.38508,0.22706,0.2271,0.099479,0.22707,0.20159,-0.23199,-0.41052,-0.053458,-0.2065,0.023017,-0.15553,-0.078996,-0.07899,0.12505,0.20162,0.38016,0.27811,-0.23199,-0.20654,-0.10452,-0.10452,-0.053439,0.074038,0.023029,0.12505,-0.002472,-0.10447,-0.23199,-0.30851,0.35461,0.099564,0.25262,0.02301,-0.079002,-0.002491,-0.18102,-0.12999,0.17611,-0.12995,0.12504,-0.053458,-0.13002,0.22708,0.073989,-0.002479,-0.027969,-0.078966,-0.002399,0.12512,0.074093,-0.053495,-0.053506,-0.028018,0.074013,0.074051,-0.027962,-0.10447,0.048585,-0.002461,-0.079002,0.023041,-0.05347,0.048531,0.023017,-0.002485,0.099564,-0.027931,-0.078923,-0.25749,0.40563,-0.15556,0.048512,-0.079039,0.099534,-0.15548,-0.02798,-0.002423,0.25265,-0.027895,0.074057,-0.027987,-0.053519,-0.15553,-0.028011,-0.027987,0.048561,0.15059,0.1506,-0.28302,0.099528,-0.20649,-0.20653,-0.027987,-0.027974,0.1251,0.12507,-0.053482,-0.12996,0.074062,0.17609,-0.1045,-0.002485,-0.028023,0.12502,-0.12999,0.074057,0.04858,-0.15545,0.048567,-0.002485,0.074013,0.023023,0.074069,-0.053495,0.17608,0.22708,-0.078977,-0.20651,-0.078966,-0.13002,-0.181,0.04858,0.20156,0.074038,0.074075,0.048531,-0.10446,-0.078947,0.15059,-0.027993,-0.10452,0.12505,0.17607,-0.002503,-0.078972,-0.13,0.074062,-0.15546,-0.053458,0.048561,-0.02795,-0.002461,-0.027969,0.20153,0.30356,0.12506,-0.15549,-0.20644,-0.181,0.074038,0.074026,-0.002485,0.099552,0.15055,-0.13001,0.023029,-0.10447,0.25265,-0.078953,-0.079014,0.023023,0.023047,-0.10449,0.048536,0.074062,0.17606,-0.15551,-0.053476,-0.002448,-0.079021,0.048525,-0.10446,0.2271,0.17608,0.04858,0.17607,-0.15553,-0.027944,-0.027956,-0.18102,-0.12998,-0.002491,0.15057,0.17604,0.074038,0.023035,0.023072,-0.053427,-0.25751,0.09954,0.22708,0.023035,0.17605,0.048543,-0.13,-0.027993,0.09957,-0.2575,-0.078984,0.50765,-0.002454,0.099559,-0.20655,-0.28306,-0.027974,-0.002436,0.12512,0.074111,-0.078972,0.17602,0.20156,-0.053495,-0.18106,0.0485,-0.002454,0.023065,-0.002405,-0.12995,-0.12998,0.023023,-0.027969,-0.002485,-0.002479,0.048536,-0.079014,0.099546,0.074081,-0.18095,0.023084,0.12507,-0.028023,-0.079026,-0.053495,0.099521,0.48219,-0.25751,-0.28301,-0.078935,-0.38503,-0.028005,-0.10451,-0.181,0.45663,0.20156,0.074075,-0.18103,-0.053488,0.099595,0.15059,0.30358,-0.12999,-0.13002,-0.027987,-0.027969,-0.02798,-0.053464,-0.053446,-0.15547,-0.078972,0.15054,0.048573,0.022986,0.048549,-0.02798,-0.10452,0.30363,-0.078977,-0.25748,-0.20652,-0.15553,-0.053482,0.35464,0.12507,0.074033,0.074033,-0.053488,-0.078972,-0.12993,-0.02795,0.074026,0.074008,0.023035,0.048531,0.074062,-0.027938,-0.002454,-0.053421,-0.05347,-0.05347,-0.10451,0.074002,0.074038,-0.002503,0.09954,-0.02795,-0.1045,-0.027956,-0.053439,-0.053427,0.023035,-0.12999,0.023059,-0.002454,0.20153,-0.15551,-0.0535,0.32915,-0.33401,0.048555,0.023047,0.074038,-0.15552,-0.028005,-0.002503,0.20161,0.048536,0.17613,-0.10443,-0.28302,-0.027962,0.073989,-0.053495,0.09951,0.02301,-0.078953,-0.053476,0.023114,-0.10445,-0.0535,-0.02798,0.048561,-0.078984,0.099583,0.38011,0.12503,-0.002472,-0.25753,-0.23198,-0.053415,0.12503,0.074062,-0.10449,-0.079033,0.048518,0.074033,0.023065,-0.002418,0.023065,-0.12999,0.074062,0.099564,0.27813,0.099521,-0.053525,-0.028011,-0.053495,-0.12998,-0.078959,-0.078935,0.048536,0.15062,-0.41058,0.58418,0.12504,-0.4106,-0.002491,0.17611,-0.23201,0.048555,-0.027969,0.38017,-0.027925,-0.079039,-0.028018,-0.20651,0.023041,-0.05347,-0.053446,-0.078972,0.17608,0.074069,0.12505,-0.002516,0.074044,-0.002472,-0.20652,0.023029,0.0741,0.048555,0.20157,0.023054,-0.10447,0.048549,-0.002479,-0.027987,0.15054,-0.002436,-0.20649,0.023054,0.048536,-0.053488,0.17608,0.02301,0.074069,-0.053458,-0.027987,-0.0535,-0.1555,-0.027931,0.40569,0.074081,-0.002491,-0.053573,-0.20657,-0.05347,-0.12999,-0.18101,0.099632,-0.002418,-0.18101,-0.053458,0.27812,0.45662,0.22707,-0.2831,-0.25755,-0.30854,-0.283,-0.12996,-0.15551,0.023017,0.27813,0.35462,-0.078996,-0.079014,-0.002454,-0.12998,0.074118,-0.027938,-0.027998,0.023029,0.17611,0.02298,-0.002528,-0.18101,-0.078984,0.12509,0.048641,-0.053464,0.12504,-0.13002,-0.15553,-0.18105,0.074026,0.15059,-0.10452,0.17611,-0.18099,-0.002461,-0.002454,0.17607,0.32914,-0.13004,-0.13007,-0.13002,-0.002454,-0.053402,-0.053451,0.22715,0.12503,-0.053476,-0.20652,-0.002503,-0.079008,-0.028011,0.12507,0.074093,-0.027907,-0.15548,-0.027974,-0.027969,0.20158,-0.028023,0.048512,-0.079008,-0.027969,0.32916,-0.002418,-0.1555,-0.028018,0.048536,0.20163,-0.20653,-0.181,-0.18101,-0.05347,0.27812,0.099601,0.048573,-0.13004,-0.079008,-0.027993,0.023035,0.048561,0.023029,-0.002479,0.2016,-0.232,-0.12999,-0.028005,0.22712,0.12506,0.023035,-0.078959,0.17607,-0.18105,-0.078984,0.25265,-0.15551,0.15054,-0.18101,-0.28306,-0.079021,0.32915,0.50774,0.12507,-0.28308,-0.30856,0.048561,0.38013,0.048549,-0.23203,0.099528,0.074069,-0.25754,-0.13,-0.053446,-0.027938,0.12509,0.099521,-0.002472,0.48217,0.022986,-0.10452,-0.15548,-0.078959,-0.078984,-0.002461,-0.10448,0.048487,0.04858,0.048567,0.048506,0.099552,0.074057,-0.33405,0.12509,0.53321,-0.15545,0.048543,-0.10454,-0.28307,-0.10454,-0.15554,0.15059,-0.078972,-0.12994,-0.12998,0.17611,0.099559,-0.027987,-0.027998,0.17609,0.12504,0.023065,-0.002454,0.20162,-0.053421,-0.13006,0.25256,-0.15546,-0.053482,-0.13003,-0.028005,-0.25751,-0.18101,0.43115,-0.027864,-0.181,0.20156,-0.0535,-0.028005,0.12505,-0.0535,0.023047,0.22712,0.12507,0.099588,0.023072,-0.1045,-0.20653,-0.13,-0.00251,-0.002491,0.023065,0.048543,0.1251,0.12509,-0.027969,-0.1045,-0.15551,0.074026,0.048518,0.27809,-0.05347,-0.2065,-0.002405,-0.12995,-0.078953,-0.23203,0.099528,-0.18102,0.022974,-0.027993,0.023054,0.22713,0.35465,0.023054,0.048536,-0.15556,-0.027987,0.02301,-0.053519,-0.002454,-0.28298,-0.15551,0.2271,0.2782,-0.002394,-0.002528,-0.079045,-0.23205,-0.10456,0.43116,0.43117,-0.12998,-0.2065,-0.15548,-0.13001,-0.18105,-0.18101,-0.027987,0.20156,0.15054,0.048531,-0.078972,0.30367,0.17612,0.38017,-0.15552,-0.35954,-0.053506,-0.028018,-0.10451,-0.13002,-0.027974,0.074075,0.023084,-0.078972,0.02301,0.22711,-0.053439,0.25256,0.099534,-0.18094,0.02301,0.12507,-0.28303,-0.30853,-0.25753,0.09954,0.17607,-0.079026,-0.053544,0.25262,0.048561,-0.078959,0.17616,-0.002405,0.023065,-0.10452,-0.027962,0.022974,-0.13006,-0.0535,-0.027969,-0.02792,-0.20649,-0.002387,0.27807,0.30365,-0.002497,-0.10453,-0.079021,-0.0535,-0.053464,0.074069,-0.078928,0.048585,-0.13001,-0.15553,0.074044,0.20154,-0.027993,-0.02798,-0.15548,-0.027944,0.32921,0.099608,0.073995,-0.13002,-0.20655,-0.10453,0.12502,0.048536,-0.23204,0.023084,-0.027895,0.048604,0.048549,-0.15556,-0.027993,0.074051,0.2781,0.30365,0.023041,-0.20653,-0.2575,-0.25751,0.073989,-0.002418,-0.053451,0.074026,-0.053519,0.048487,-0.20651,-0.078947,-0.1299,0.22717,0.17606,-0.079051,-0.079026,0.40562,0.40561,0.048555,-0.33407,-0.38505,-0.30848,-0.25746,0.099588,-0.028018,0.048512,0.099521,0.22703,0.099552,-0.027956,0.17614,0.15064,-0.23205,-0.053482,0.048512,-0.18101,0.023023,0.25262,-0.10448,-0.20653,-0.10444,0.048543,-0.10449,-0.079014,-0.079033,0.099552,0.22712,0.12508,0.023029,0.099559,-0.078972,-0.10447,-0.38503,0.074044,0.35467,0.27812,0.38014,-0.20656,-0.3341,-0.30856,-0.35954,-0.48705,-0.053427,0.96679,-0.002491,0.023029,0.25259,0.07402,-0.18103,0.074038,0.15059,-0.078953,0.099619,-0.078947,-0.10452,-0.027993,0.048506,0.048531,0.12504,0.023047,0.023065,-0.33398
-0.15549,-0.18099,-0.027969,0.22707,-0.078984,-0.078972,0.17607,-0.053488,0.074075,0.15056,-0.20649,-0.41054,-0.027969,0.17606,-0.20652,-0.078996,0.32909,0.25258,0.074062,-0.12998,-0.15547,-0.12998,-0.15549,-0.002479,-0.027987,0.099528,0.12504,0.20156,0.074062,-0.027944,-0.12997,-0.30851,-0.12999,0.023035,0.023023,-0.053488,0.12504,0.17605,0.048555,-0.002454,-0.027956,-0.12997,0.12506,0.048525,-0.07899,-0.12999,0.12507,0.048549,-0.002454,-0.002436,-0.12996,-0.2575,-0.10449,0.12507,0.048525,-0.078996,0.12504,0.17606,0.023047,0.023065,-0.053446,-0.20649,-0.181,-0.027993,0.09954,-0.027987,0.15056,0.25258,0.09957,0.04858,-0.12996,-0.33402,-0.10449,0.048531,0.09954,-0.053488,0.048536,0.20157,0.15057,-0.18098,-0.30851,-0.20649,-0.027974,-0.053495,0.048525,0.20156,0.22708,0.023041,-0.12996,-0.078966,-0.18099,-0.30851,-0.13,0.023023,0.074026,0.20155,0.20156,0.074044,0.17608,0.023059,-0.3085,-0.12996,0.074038,0.023017,-0.10449,0.15056,0.27806,-0.002479,0.023072,0.099583,-0.23201,-0.283,-0.05347,0.15053,-0.13001,-0.002472,0.27808,0.048536,-0.053451,0.09957,-0.1555,-0.20649,0.12507,0.15054,-0.12999,-0.053495,0.25257,0.17606,0.074069,-0.027944,-0.18097,-0.35953,-0.002467,0.099546,-0.028011,-0.027987,0.22707,0.048555,-0.002436,-0.002443,-0.12999,-0.38503,0.074038,0.22705,-0.053482,-0.10449,0.12505,0.22708,-0.078959,0.023054,-0.078959,-0.2065,-0.15549,-0.053495,0.023017,0.09954,0.25258,0.20157,-0.027962,-0.12999,-0.027956,-0.053476,-0.02798,-0.02798,-0.1045,-0.1045,0.20158,0.25257,0.09957,0.048561,-0.078972,-0.33402,0.023041,-0.002485,-0.18101,0.048536,0.17605,0.023017,0.048543,0.15057,-0.23201,-0.25748,0.32912,0.023017,-0.15552,0.09954,0.074038,-0.053482,0.15059,0.12508,-0.283,-0.20649,0.15056,-0.053488,-0.15549,0.023041,0.27808,0.074038,0.074057,0.15057,-0.232,-0.38503,-0.002472,0.20156,0.023035,-0.078984,0.22707,0.12504,0.023047,0.023059,-0.10446,-0.15549,-0.10449,-0.15549,-0.07899,-0.0535,0.15055,0.12505,0.074038,0.12509,-0.18099,-0.23199,-0.002448,0.074026,-0.053488,-0.002485,0.023017,0.074062,0.04858,-0.053495,-0.15546,-0.078972,-0.078984,-0.002467,0.048531,0.023023,0.25257,0.12505,0.15059,0.048555,-0.30849,-0.18099,-0.027987,-0.053488,-0.053488,-0.078984,0.15056,0.074038,0.17609,0.12507,-0.20648,-0.38503,-0.1045,0.12505,0.048525,-0.002472,0.25258,0.15057,-0.002423,0.09957,-0.30852,-0.18098,0.023005,0.02301,-0.078996,-0.078996,0.27809,0.074038,-0.002423,0.12507,-0.20648,-0.30851,-0.12999,0.074038,-0.15551,0.12505,0.22706,0.048549,0.099559,0.09957,-0.078959,-0.232,-0.002467,-0.002479,-0.10448,0.048518,-0.027974,0.22709,0.2016,0.074069,-0.181,-0.35953,-0.05347,-0.00251,-0.10449,0.17604,0.27809,0.15056,0.25259,0.023059,-0.15548,-0.35951,-0.053488,-0.002454,-0.078977,0.048555,0.048531,0.048531,0.048561,0.023047,-0.28299,-0.15549,0.048549,0.12504,-0.10447,0.048525,0.074051,0.074026,0.12508,0.023047,-0.10447,-0.20649,-0.027969,-0.05347,0.023023,0.048543,0.22706,0.074057,-0.053458,-0.12998,-0.2065,-0.232,-0.002461,0.074026,-0.053488,0.023029,0.27806,0.12507,0.074044,0.17609,-0.15548,-0.23199,-0.10447,0.048518,-0.13,0.15057,0.27808,-0.02798,0.12507,0.22709,-0.23201,-0.38503,0.023035,0.048512,0.048531,0.17607,0.12504,-0.002461,0.074069,-0.027956,-0.10446,-0.12998,-0.1045,-0.002467,-0.13001,-0.053495,0.20157,0.15055,0.048567,0.12508,-0.2065,-0.25751,0.09954,-0.053495,-0.002461,-0.078996,0.048561,0.09954,0.048567,0.27811,-0.2575,-0.33401,0.023029,-0.13001,0.12505,0.02301,-0.002461,0.27807,-0.002461,0.25259,-0.027969,-0.38503,-0.05347,0.048536,-0.053482,0.023029,0.32909,0.15057,-0.10446,0.074075,-0.12998,-0.30851,0.048543,0.38008,-0.13001,-0.002472,0.099521,0.074013,0.15058,-0.078972,-0.33402,-0.28298,0.15057,0.2016,0.15057,-0.078996,0.048543,-0.053506,0.023054,-0.002454,-0.33401,-0.15548,-0.1045,-0.10451,-0.0535,-0.002472,0.66069,0.15057,-0.18101,0.074062,-0.23199,-0.25748,-0.002467,-0.10449,-0.43609,0.02301,0.55864,0.12504,-0.078966,0.09954,0.099588,-0.12997,-0.10447,0.12505,0.12511,0.30364,0.22708,-0.079008,-0.25757,-0.053519,-0.027974,-0.51259,0.048567,-0.002443,0.074075,-0.027969,-0.25753,-0.027993,0.38016,0.2781,0.58422,-0.002454,-0.28308,-0.028005,-0.43605,-0.38506,0.43116,0.15053,-0.053476,-0.18098,-0.23202,-0.30855,0.17611,0.40563,-0.30856,0.15056,0.048525,0.099588,0.15056,-0.05347,-0.33403,-0.43604,0.023023,0.15057,0.50767,0.58417,-0.25753,-0.23202,-0.23204,-0.027969,-0.43607,-0.30854,-0.027987,-0.02798,0.2016,0.43114,0.68623,-0.25755,0.1232,0.19971,-0.18098,-0.25746,-0.28307,0.048487,0.1761,0.3036,0.048525,0.45664,-0.3596,-0.41057,-0.33398,0.35467,0.32912,-0.28308,-0.13004,-0.10452,-0.10449,-0.20652,-0.053476,0.15059,0.50772,0.048629,-0.002454,0.048487,-0.15553,0.048555,0.17606,-0.10455,-0.10448,-0.33404,-0.23195,0.22711,-0.13,-0.027987,0.048543,0.35461,-0.027987,-0.43606,-0.15552,0.048561,-0.12999,-0.30851,0.55869,0.30359,-0.23204,-0.079008,-0.13001,-0.078996,0.15056,-0.053446,0.04861,-0.078928,0.17606,-0.002485,-0.002454,-0.079008,-0.028011,0.20157,-0.10451,-0.053488,-0.027938,-0.078941,-0.15549,-0.053495,0.023047,0.25263,0.40559,-0.28308,-0.18101,0.048536,0.40574,-0.12998,0.38016,-0.33411,-0.53812,0.074002,0.02298,-0.078984,-0.20652,-0.078972,0.023108,0.048629,0.023084,0.048512,-0.18101,0.099503,-0.053513,0.074038,0.20159,-0.002467,-0.02792,0.074118,0.17604,-0.13001,-0.15553,-0.10453,-0.079014,-0.10445,-0.002461,0.099564,0.20158,0.023084,-0.053476,-0.079008,-0.053476,-0.053451,0.17607,0.074013,-0.15551,0.099546,0.43118,-0.05347,-0.20656,-0.002503,-0.12999,0.17608,0.099583,-0.30856,-0.12996,0.66075,-0.232,0.023103,-0.35959,0.25257,-0.15554,0.17603,-0.10449,-0.053506,0.099552,0.023017,0.074093,-0.10444,-0.18099,0.023059,-0.33407,0.27812,0.50767,-0.12999,-0.18102,-0.10451,-0.05347,-0.23199,0.074057,0.22706,0.02301,0.023041,-0.002491,0.048531,0.048585,-0.002479,-0.181,0.099613,0.048561,-0.10448,-0.07899,-0.13,0.20155,-0.002497,0.074044,-0.027956,-0.002405,-0.078977,-0.079021,0.22708,0.25258,-0.10453,-0.15555,0.20159,-0.027944,0.17609,-0.10443,0.09957,-0.20654,-0.25758,0.048561,0.25259,0.099564,0.048543,-0.15551,0.22708,-0.12998,-0.10445,-0.053488,-0.053495,0.15055,0.22706,-0.028005,0.048525,0.099559,0.3547,-0.25749,-0.43603,-0.20649,-0.00251,0.02301,-0.053495,0.074013,0.20156,-0.002461,0.074033,0.12512,-0.053421,-0.078984,-0.002485,0.074057,-0.05347,-0.079021,0.099521,-0.07899,-0.12999,-0.027944,-0.002394,-0.027974,-0.002497,0.12505,-0.23204,0.12502,0.22709,0.048573,-0.05347,-0.23203,-0.15545,-0.15549,-0.15554,-0.053482,0.2016,0.074044,0.048543,0.68626,0.074013,-0.33404,-0.23198,-0.23204,-0.20651,-0.0535,0.099546,-0.028005,0.12504,0.12509,0.22712,-0.10444,-0.23197,-0.05347,0.048536,-0.18103,0.02301,0.15055,0.12505,-0.053482,-0.10452,0.1251,-0.053409,-0.053458,-0.15554,-0.23202,0.074038,0.48216,-0.30857,-0.1045,0.4312,-0.15546,-0.283,-0.18098,-0.13001,-0.027993,0.22705,0.15052,0.09954,0.074044,-0.027962,0.023084,-0.027907,-0.002467,-0.028005,-0.078972,-0.002418,-0.1045,0.023023,-0.10448,0.023041,0.023059,0.074087,-0.02798,-0.20652,-0.078984,0.048531,-0.10451,0.074051,0.43112,-0.02798,-0.12996,-0.12996,-0.15548,0.02301,0.17607,0.17606,0.22709,0.17607,-0.23203,-0.23201,-0.35954,-0.18098,0.22711,0.22712,0.43117,0.22705,-0.15555,-0.53815,-0.35957,0.074075,0.27819,-0.15549,-0.002461,-0.002485,0.023035,-0.13003,0.15057,0.22706,-0.078972,0.023059,-0.15551,-0.25752,0.30365,0.099564,-0.2065,-0.18104,-0.15553,0.35464,-0.02795,-0.18101,-0.10447,-0.15551,-0.053476,-0.002467,0.45667,0.074013,-0.10454,-0.002479,0.023029,-0.07899,-0.078935,0.27815,-0.053458,-0.079008,-0.002467,-0.053519,-0.15556,-0.053482,0.71175,0.27813,-0.10445,-0.18098,-0.4106,-0.35956,-0.15549,0.32913,-0.079051,0.12505,-0.078959,-0.07899,-0.002423,-0.027931,0.074026,0.023005,0.15057,0.27811,-0.027998,0.074069,0.023054,0.099564,-0.30853,-0.436,-0.38505,-0.002497,0.3036,0.2271,-0.18103,0.048512,-0.10445,0.048555,-0.053464,-0.181,0.023017,0.20158,0.15056,-0.002467,0.074038,-0.027969,-0.25753,-0.027956,-0.002443,-0.053464,-0.02798,-0.002479,0.074087,0.074038,0.074051,-0.10453,0.20162,0.074038,-0.027938,-0.23199,-0.079002,-0.027993,-0.18105,0.074033,0.099564,0.60969,0.074093,-0.181,-0.28302,-0.078928,-0.28306,0.15054,0.099528,-0.20656,-0.079002,0.048567,0.2016,0.1251,0.048543,0.22716,-0.13002,-0.15554,-0.053482,-0.002479,-0.053482,-0.079014,-0.002436,0.1506,-0.002461,-0.23199,0.048561,0.074075,-0.61468,-0.002461,0.89024,0.38013,0.023041,-0.2065,-0.38504,-0.027944,-0.43609,0.074026,0.38014,-0.15549,-0.15553,-0.18106,0.17609,0.25259,-0.18095,-0.10443,-0.15549,-0.07899,-0.13002,0.20155,-0.027987,0.27809,0.048573,-0.002467,-0.078923,-0.10447,-0.02795,0.048506,-0.002491,-0.13002,0.099515,-0.10449,-0.15551,0.04858,0.20162,0.074111,-0.13,-0.079026,-0.002454,0.099546,0.023035,-0.002497,0.023072,0.20159,0.45672,-0.30852,-0.23204,-0.20655,-0.18101,0.074038,-0.053495,0.3291,0.023041,-0.10448,0.12513,-0.232,-0.027969,0.58424,-0.13001,0.15055,-0.2066,-0.23205,-0.002467,-0.002423,-0.33403,-0.20647,0.048561,0.22709,0.074069,-0.18104,0.25252,0.07402,0.2271,-0.28298,-0.18097,-0.30848,0.074038,0.12504,0.22708,-0.10454,0.023005,0.15054,0.12509,-0.2065,-0.12993,-0.20646,-0.002467,0.074008,-0.002467,0.022998,0.17602,0.023035,0.15059,-0.002461,-0.12997,0.023096,0.023065,-0.002516,-0.027969,-0.18105,0.074026,0.074038,-0.15551,-0.10445,0.20164,0.023078,0.22712,-0.027993,-0.15551,-0.002485,0.074026,-0.002479,0.15054,0.20163,-0.12995,-0.23199,-0.30855,-0.20654,-0.027987,0.20158,-0.05347,-0.078977,0.22711,0.20159,-0.12999,-0.33404,-0.027969,0.048531,0.15057,0.023035,-0.10453,0.09954,0.048549,0.023059,-0.027938,-0.2575,-0.053464,-0.002472,-0.1045,-0.002454,0.12505,-0.002491,-0.13002,0.15054,0.074062,0.1251,-0.28302,0.048531,-0.20649,0.048561,0.15056,0.099559,-0.25756,0.074033,-0.18096,-0.027962,-0.002485,0.074062,0.099564,-0.23203,-0.027969,-0.10451,0.12504,0.43116,-0.23199,-0.027944,-0.053476,-0.18103,0.17611,0.30364,-0.079057,-0.10456,-0.15551,0.30368,0.023059,-0.38505,-0.053464,-0.078984,0.45666,-0.002491,-0.18105,0.023023,0.048555,0.32914,-0.18096,-0.18097,0.048561,-0.13002,-0.18101,-0.028018,0.12504,0.099546,-0.027974,0.1251,0.023121,-0.10445,-0.18099,-0.0535,-0.12999,-0.13005,0.25256,0.22705,0.17608,-0.12999,-0.12999,0.20164,-0.25751,-0.10451,-0.078996,-0.15551,-0.18103,0.023041,0.048604,-0.002454,0.1251,0.32917,-0.13002,0.12503,0.1251,-0.20653,0.0485,0.022992,-0.12999,0.074051,-0.10447,-0.23196,-0.20647,-0.079039,0.099552,0.074081,-0.027998,-0.079026,0.22708,0.12508,-0.053433,-0.027925,-0.10452,-0.18101,-0.0535,0.023035,-0.079014,0.22706,0.023047,-0.23201,-0.23196,-0.30848,-0.053451,0.12504,0.58421,0.048469,-0.20658,-0.18105,-0.18101,-0.20649,-0.078935,-0.027938,0.20157,0.048555,0.023041,0.099534,0.048536,0.074026,-0.079026,0.17609,0.048634,0.0741,-0.027974,-0.20654,-0.30856,-0.10452,0.048518,-0.053495,0.023023,0.22713,0.1251,-0.10446,-0.027993,-0.25755,-0.002472,0.5587,0.074051,-0.028029,-0.002479,-0.078984,-0.027913,0.074111,-0.027962,-0.13007,-0.053488,-0.20653,0.20158,0.09957,-0.30855,0.17607,0.023084,0.09957,-0.25753,-0.05347,0.2781,-0.053464,-0.10453,0.099528,0.074051,0.15056,-0.078886,-0.15546,-0.053482,-0.079051,0.02301,-0.028011,0.22707,0.17606,-0.002443,-0.15545,-0.078941,-0.053415,-0.13001,-0.027993,-0.079008,-0.002503,-0.89524,0.50764,1.7831,0.04858,-0.35956,-0.23199,-0.48713,-0.10451,-0.13001,0.048555,-0.13002,0.17604,-0.027956,-0.079002,0.023078,-0.053439,0.27812,-0.027962,-0.002472,0.38013,0.1761,0.022992,-0.079002,-0.18105,-0.181,-0.12995,0.4312,-0.181,-0.1045,0.048536,-0.028042,-0.0535,-0.079002,-0.12999,0.023059,-0.002436,0.099577,0.12508,0.09957,-0.078996,-0.079008,0.22707,0.27812,-0.078996,-0.078959,-0.334,-0.38511,-0.053482,0.35464,-0.15549,0.023017,0.25257,0.048567,-0.25753,-0.48707,-0.2065,1.426,0.32917,-0.71673,-0.23205,0.12505,-0.4361,-0.10449,0.074038,-0.12998,-0.25746,-0.053458,0.60971,0.023029,-0.10451,0.20158,-0.002461,0.02301,-0.28305,-0.46158,-0.078953,0.40566,0.17606,-0.078972,-0.079002,-0.10452,0.074038,-0.20652,0.099552,0.074093,-0.078935,-0.027987,-0.15553,-0.079008,0.53318,-0.027925,-0.10453,-0.1045,-0.053476,0.20161,-0.027944,-0.13002,-0.053488,-0.027944,0.22713,0.074033,-0.18106,0.099564,0.074051,-0.35953,-0.078923,-0.13003,-0.33409,0.43118,0.50767,-0.18106,-0.13002,-0.053458,0.1251,-0.027962,-0.15545,-0.20649,-0.002497,0.35463,-0.053513,0.022992,0.15054,0.023029,-0.2065,0.20164,-0.078953,-0.1045,0.048543,-0.002467,0.17611,-0.13,-0.35962,0.35465,0.43118,-0.25753,-0.30851,-0.13001,-0.02798,-0.002491,0.099515,0.048525,0.17607,0.023054,-0.02798,0.1251,-0.078928,-0.20651,-0.13002,0.1761,0.25259,0.20156,-0.23207,0.023065,0.15056,-0.053439,-0.33401,-0.002467,-0.053513,-0.002485,0.074038,0.17605,0.099559,0.25262,-0.078959,-0.20655,0.099595,-0.027938,0.15057,-0.002472,-0.15553,-0.10455,0.20158,0.074057,-0.027993,-0.002418,-0.078904,0.074038,-0.079014,-0.25757,0.17605,0.38016,-0.002479,-0.078959,-0.18101,0.023054,-0.28298,-0.079002,0.17609,0.048573,-0.13002,0.17605,0.048506,-0.053482,0.099564,0.20162,-0.25749,-0.053495,-0.18103,-0.20655,0.048543,0.48214,0.45667,-0.18101,0.023047,-0.38503,-0.027944,-0.18098,-0.079002,0.35463,0.023029,-0.053525,-0.15554,-0.15552,0.38014,0.15063,0.023072,-0.18101,-0.33408,-0.23203,0.45667,0.15055,0.12503,-0.1045,-0.2065,0.27814,0.25265,-0.4871,-0.00251,0.048543,-0.002503,0.099552,0.023054,-0.1555,0.074069,0.074087,-0.15549,0.53318,-0.10451,-0.23202,-0.18103,-0.002485,0.023041,-0.002467,-0.078977,0.074057,0.048604,0.30365,-0.002485,-0.12999,-0.002503,0.048506,0.074033,0.048543,-0.10447,-0.18099,-0.053439,-0.078977,-0.027998,0.074069,0.048549,0.12507,0.17608,-0.13,-0.15555,-0.2065,0.20163,0.12509,-0.25754,-0.10446,-0.02798,0.099559,0.099515,0.048531,-0.13001,-0.05347,0.02309,0.22709,-0.027969,0.27812,0.023023,-0.15549,-0.13002,-0.30857,0.099546,0.22713,-0.20648,-0.002485,0.023047,0.099546,0.17607,-0.10451,0.15056,-0.053476,0.074057,-0.053427,-0.12998,-0.12999,-0.28306,-0.027956,0.20158,0.22705,0.074062,0.074038,-0.002454,0.04858,-0.25751,-0.23204,-0.002472,0.38016,-0.15554,0.022998,-0.053476,-0.053476,0.023054,-0.12996,0.32915,0.09957,-0.079014,-0.25753,-0.0535,0.15058,0.53315,0.12507,-0.23203,-0.38501,-0.28301,-0.027969,-0.15554,0.22708,0.099559,0.20152,0.023047,-0.053482,0.048549,0.048598,-0.12996,-0.15549,-0.10455,-0.027962,-0.02798,0.09954,0.074051,0.048573,-0.23201,0.20163,-0.002381,0.074026,-0.053525,-0.053495,0.02301,0.022998,0.048525,0.023059,-0.002448,-0.078947,-0.28298,-0.10448,0.12505,-0.1045,0.15056,0.40563,-0.13002,0.023035,-0.10449,-0.35951,0.12509,-0.13002,0.55867,-0.18104,-0.1555,-0.1045,-0.002467,-0.20653,-0.053458,-0.053451,0.023059,-0.002461,0.02301,0.074062,0.17603,0.15054,0.023054,-0.15548,0.30366,-0.10449,-0.002454,-0.02798,-0.38508,-0.15548,-0.00251,-0.23204,0.074033,0.12509,0.12509,-0.027962,-0.078984,0.048555,0.32912,-0.053476,-0.18103,0.17606,0.15057,-0.38505,-0.053464,0.048561,-0.10444,0.023029,0.12505,-0.07899,-0.18105,0.074002,0.3291,0.32913,-0.15552,-0.053446,-0.28299,-0.053451,0.023035,0.20161,-0.10452,0.022968,0.27808,-0.10447,-0.1045,-0.027931,-0.027901,0.048567,-0.13,-0.18101,-0.028011,0.074013,0.17607,0.25261,-0.027969,0.023084,-0.002467,-0.053464,-0.028011,-0.15555,0.048512,0.023041,0.048549,0.074057,0.023047,-0.002436,-0.12994,-0.10449,0.27807,0.30361,-0.20653,-0.20655,-0.20656,0.048567,0.074075,0.15062,-0.078947,-0.053476,-0.23205,-0.23205,-0.13002,0.40564,0.17609,-0.079002,0.2016,-0.02795,-0.15545,-0.23201,-0.10446,-0.002516,0.25252,0.15051,0.15054,-0.002443,-0.10444,-0.078953,-0.12994,-0.18098,-0.1045,0.12505,0.12504,0.20153,0.15055,0.074106,-0.12995,-0.23199,-0.1045,0.023041,-0.15553,-0.1045,0.023017,0.25257,0.023041,0.048585,0.074087,0.023078,-0.2065,-0.10449,-0.02798,-0.13002,0.09957,0.12504,0.12503,-0.002454,0.023023,0.074069,-0.12994,-0.35957,-0.002491,0.5077,0.074026,0.12505,-0.25757,-0.30855,-0.12998,-0.027925,-0.053427,0.17607,0.074013,0.023029,0.12509,-0.053506,-0.18105,0.12511,0.58417,-0.20649,-0.15551,-0.18097,-0.20652,0.048573,-0.10451,-0.028023,-0.15551,-0.23201,0.35465,0.1251,0.099577,-0.05347,-0.002503,0.07402,0.048561,-0.027998,-0.027998,-0.12998,-0.053476,-0.002443,0.12513,-0.12999,-0.027993,0.048573,-0.079021,-0.15553,0.2781,0.12505,-0.13001,-0.10444,-0.078947,0.20158,0.023035,-0.13001,-0.079026,0.023035,-0.053476,-0.23205,-0.002454,0.099608,-0.027925,-0.027962,-0.02798,-0.002472,-0.053519,-0.079008,-0.002467,-0.002405,0.15058,-0.027925,-0.23199,-0.30857,-0.053495,-0.002479,0.17606,-0.10451,-0.078977,0.099559,-0.002448,-0.053446,-0.10445,-0.078977,0.048536,0.074051,-0.027987,0.023023,-0.002461,0.12508,0.40565,-0.20649,-0.35951,-0.20654,0.074013,0.023035,0.048549,0.074026,0.15056,0.023065,-0.027962,-0.078959,-0.2575,-0.05347,0.074038,0.048536,0.074044,0.048506,0.023035,0.22708,-0.002461,-0.18098,0.099577,-0.053495,-0.20653,0.0741,-0.13,-0.002516,-0.1045,-0.13002,0.40566,0.1251,-0.18099,-0.027974,0.023017,0.048567,-0.028005,0.09954,0.15055,0.099559,0.023054,0.17609,-0.25749,-0.078972,-0.053482,-0.15551,0.20159,0.2526,-0.027974,-0.23205,-0.02798,-0.28302,0.099583,-0.0535,-0.027993,-0.002454,0.17606,0.15056,-0.078966,0.15056,0.048585,-0.002454,-0.18097,-0.07899,-0.13002,-0.002472,0.2271,-0.053544,0.074013,-0.027974,-0.12999,-0.12995,-0.3595,0.023084,0.02301,0.074026,-0.00251,0.048525,0.17607,-0.027956,-0.18099,-0.078928,-0.15545,-0.02795,-0.079002,-0.10452,0.099521,0.099503,0.023029,0.099595,0.023054,-0.20648,0.17618,-0.078984,-0.027993,0.023041,0.12504,-0.10454,-0.20654,-0.002461,0.27814,0.12512,-0.28301,-0.20652,-0.10452,-0.1045,0.074044,0.12504,-0.053488,0.04858,0.048561,-0.053446,-0.02792,-0.053488,0.022992,0.074033,-0.053488,0.022992,-0.027956,0.048561,0.12507,-0.078953,-0.15548,-0.002467,-0.053482,-0.20652,-0.027956,0.023023,0.15054,0.074062,-0.10451,0.1761,-0.027931,-0.028018,0.074081,-0.027944,0.023041,-0.20652,-0.23207,-0.002472,0.45666,-0.078984,-0.15546,-0.12999,-0.027987,-0.18097,-0.027993,0.074026,0.099528,0.27809,0.1761,-0.027944,-0.10445,-0.181,-0.028018,-0.078984,0.074062,-0.002479,0.048543,-0.027969,0.048549,0.023065,-0.12998,-0.079021,-0.15553,0.099601,-0.07899,-0.15557,0.099546,0.074038,-0.053476,-0.10446,-0.10444,0.48218,-0.002472,-0.1045,-0.10452,-0.18104,0.20159,0.17609,0.023041,-0.18098,-0.12998,-0.079002,-0.053495,-0.002454,-0.053531,0.074013,0.15057,-0.053446,0.074057,0.023072,-0.027931,0.023023,-0.078977,-0.12999,0.048518,0.22708,0.07402,0.074038,-0.18099,-0.30851,-0.18097,-0.078972,0.023023,0.099583,0.12504,0.17604,-0.027993,0.099546,0.09957,-0.027969,-0.20647,0.2016,-0.25753,-0.18102,0.099546,0.099546,0.099521,0.023047,-0.07899,-0.027931,-0.30851,-0.25753,0.32912,0.17606,0.30362,-0.10451,-0.15553,-0.1555,0.02301,-0.15546,-0.053458,0.15059,0.074044,-0.078984,-0.002467,-0.027993,0.023023,-0.002467,0.12508,-0.078923,0.074069,-0.027969,-0.07899,0.048525,0.099546,-0.079002,-0.053513,0.023047,-0.053464,0.12512,-0.002436,-0.002472,-0.15552,-0.027993,0.048543,-0.002467,0.17606,0.023047,-0.053488,0.17611,-0.18098,-0.078996,-0.053495,-0.15551,0.048518,0.30358,0.30364,-0.28303,-0.18102,-0.20647,-0.078947,-0.0535,0.20159,-0.053495,0.074051,0.023023,0.09954,-0.181,0.074038,-0.10445,-0.25751,0.2271,-0.12999,-0.078996,0.048555,0.20156,0.074013,-0.079014,-0.12998,-0.053451,-0.12996,-0.20648,-0.028005,0.09957,0.048512,0.17604,0.15057,0.15056,-0.078977,0.17611,-0.02792,-0.20652,-0.30859,-0.13002,0.32912,-0.079014,-0.002472,0.099583,-0.053476,-0.18098,0.099577,-0.078996,0.048549,0.099577,-0.002491,0.15055,0.048549,0.09954,-0.027938,-0.10449,-0.027925,-0.10451,-0.10447,-0.13,0.048506,0.07402,0.2526,0.099577,-0.05347,-0.002436,0.023078,-0.10449,-0.1045,0.099564,-0.18103,0.25257,-0.079021,-0.15549,0.074087,0.074075,-0.027956,0.048531,-0.027998,0.074057,0.023029,-0.053488,-0.10449,-0.002461,0.12507,-0.078959,-0.027931,-0.12999,0.17607,-0.079008,-0.15551,-0.10453,0.12507,0.048567,-0.15551,-0.027931,-0.002418,-0.18101,0.074033,0.2526,0.12504,0.15056,-0.20654,-0.078996,-0.23201,-0.15546,-0.02795,-0.18101,0.099552,0.17611,-0.18104,-0.10453,0.27811,-0.1045,-0.078977,-0.20647,0.12511,-0.002479,0.048525,0.15059,-0.181,-0.20652,0.17606,-0.13001,0.099534,0.32915,-0.10444,-0.078996,-0.15551,-0.181,-0.1045,0.074038,0.15056,-0.002448,0.099546,0.048585,-0.027962,-0.13001,-0.10449,-0.13002,0.048549,0.12503,0.12504,-0.053464,0.023059,-0.10441,0.099619,-0.002467,-0.25756,-0.053525,0.27812,-0.13004,-0.13002,-0.30851,-0.053482,0.099595,0.023059,0.074057,0.15059,-0.078966,-0.027993,0.023029,-0.053495,-0.079002,0.35462,-0.078941,-0.15548,-0.18097,-0.079008,0.074013,0.074033,-0.028005,-0.002497,-0.30852,0.048573,0.32917,-0.10445,-0.10449,-0.079002,0.17605,0.15054,-0.079002,-0.0535,0.023054,-0.053458,-0.12998,-0.053439,-0.002443,-0.15551,-0.053464,0.048531,0.17602,0.20156,0.048549,-0.181,-0.053427,0.099608,-0.078984,-0.0535,-0.10451,-0.078977,-0.12999,0.12504,0.074057,-0.078966,-0.027962,0.023096,0.20159,0.48213,-0.079008,-0.028018,-0.079021,-0.027987,-0.027956,-0.12998,-0.002387,-0.12995,-0.027956,-0.002472,0.20156,-0.027993,-0.053519,0.048506,-0.027956,-0.078972,-0.053464,-0.027938,-0.002454,-0.002497,-0.078977,-0.027974,0.048518,0.17607,0.25261,-0.15548,-0.053446,-0.027925,-0.027969,-0.079021,-0.13001,0.02301,-0.10455,0.45666,0.1761,0.20158,-0.15545,-0.20646,-0.1045,0.02301,-0.027974,-0.13,0.20155,0.099546,0.1251,0.048531,-0.20648,-0.10443,0.074057,0.17604,-0.027969,-0.027962,-0.079008,-0.0535,-0.002454,0.12509,0.15059,-0.078984,-0.10449,-0.079014,-0.027969,-0.12999,-0.002497,0.023023,0.35465,0.17609,0.22712,-0.053415,-0.23201,-0.33408,-0.23202,0.023005,-0.079021,0.25257,0.048573,-0.078977,-0.053458,-0.23197,0.074057,0.55867,0.074038,-0.02798,-0.027993,0.048561,-0.23203,-0.10449,-0.078953,-0.078947,0.099552,-0.002497,-0.027969,-0.053488,-0.1045,0.048531,0.074069,0.30363,-0.078966,-0.12995,-0.181,-0.053506,0.074026,0.22709,-0.002485,-0.028011,-0.07899,-0.10446,-0.18097,-0.12994,-0.002436,0.074013,0.074062,-0.10449,-0.027993,0.099521,0.023047,-0.05347,-0.10447,-0.30851,-0.1045,0.38013,-0.027993,0.074038,0.17609,-0.18101,0.023047,-0.10448,-0.181,-0.10445,0.048518,0.17607,-0.027962,-0.079014,0.15058,-0.002491,-0.078996,0.12509,0.074087,-0.078947,-0.13001,-0.079008,-0.002436,-0.002485,0.099528,0.17605,-0.053464,0.074062,0.099577,-0.20646,0.074057,-0.002521,-0.12999,-0.02798,-0.002497,0.048512,-0.002472,-0.002423,-0.00243,0.023096,-0.05347,-0.10449,0.35463,0.048506,-0.20655,-0.053531,0.099546,0.12506,-0.10445,-0.18097,-0.027974,0.12508,-0.078953,0.20155,0.074038,0.023017,-0.1045,-0.10447,-0.027956,-0.053427,-0.027987,0.17604,-0.027969,-0.079008,0.023047,0.09954,0.099559,-0.053464,-0.053458,-0.078935,-0.10448,-0.002485,-0.05347,0.12502,0.15053,0.023023,0.09957,0.17609,-0.053451,-0.30854,0.099564,0.09957,-0.078966,0.023035,-0.10453,0.048531,0.023072,0.15056,0.048585,-0.078972,-0.002454,-0.18102,0.048549,-0.002485,0.074013,0.023029,-0.002491,0.04858,0.074106,-0.053409,0.074044,-0.053519,-0.078996,-0.079021,0.15055,-0.002497,0.25262,0.074081,-0.20648,-0.23197,-0.23203,-0.002461,-0.1045,0.048525,0.022998,0.32908,-0.002461,0.17607,-0.053397,0.25265,-0.078959,-0.13004,-0.079002,-0.18104,-0.002485,-0.13001,-0.027969,-0.027944,0.12512,-0.053446,-0.002485,0.20155,-0.078972,-0.10452,-0.053482,0.27808,0.023029,0.099559,0.048598,-0.20649,-0.053458,-0.10452,-0.10449,-0.028011,-0.13001,0.12504,0.25262,0.023054,-0.12996,0.074087,0.023072,-0.13003,-0.1045,-0.028018,-0.053513,0.048525,0.17612,-0.10447,-0.053427,-0.10443,0.099559,-0.20652,-0.13001,0.43113,-0.13005,0.15052,-0.053464,0.22712,-0.20643,-0.15546,-0.15551,-0.20655,-0.13001,0.048512,-0.002503,0.22712,0.099552,-0.078972,0.1506,0.074093,-0.30855,0.02301,0.17611,-0.027987,-0.053513,0.22705,-0.027969,-0.027925,-0.15548,-0.12995,0.022992,0.074044,-0.078977,0.023047,-0.079008,0.023029,0.15058,-0.053458,-0.078941,0.074075,-0.23202,-0.25754,0.50766,0.023047,-0.002485,-0.028036,-0.079002,-0.027956,0.099583,-0.15545,-0.10447,-0.078996,0.048561,-0.002479,0.023017,0.20156,0.074051,-0.027969,-0.15548,-0.15546,-0.10447,0.15055,0.023005,0.12502,0.023041,-0.10451,-0.002461,-0.053495,-0.078935,-0.20647,-0.25751,-0.002461,0.25262,0.074033,-0.079008,0.22707,-0.002491,-0.027969,0.12512,-0.2065,-0.181,-0.05347,-0.027974,-0.078984,0.12507,0.15056,0.15056,0.048536,-0.05347,-0.15547,-0.027944,-0.1555,0.048555,0.12505,0.12502,0.12504,-0.078977,-0.1045,-0.2065,-0.12995,-0.05347,-0.053482,-0.027969,0.048531,0.22707,0.048543,0.38013,-0.002472,-0.15546,-0.15545,-0.10449,-0.23205,-0.002467,-0.027987,0.074002,-0.053495,0.023059,-0.078966,-0.053458,0.30366,0.074044,0.099528,-0.23203,-0.25756,-0.027993,0.12507,0.074057,-0.002454,0.023084,-0.027962,0.023041,-0.13,-0.1045,0.02301,0.074026,-0.027974,0.074057,-0.002448,-0.002423,-0.12993,-0.002472,-0.079026,0.02301,0.099552,0.048494,0.048531,-0.053446,-0.12999,-0.027931,-0.10445,0.07402,0.074051,0.048555,0.099546,-0.002479,0.022986,0.023059,-0.20649,0.15062,-0.027931,-0.10449,-0.027993,0.17607,0.048531,0.2526,0.074013,-0.10453,-0.28302,-0.002443,0.27814,-0.078972,0.12505,-0.35956,-0.05347,0.12505,0.023029,0.2016,-0.078972,-0.30851,-0.078972,-0.053476,0.023017,0.074051,0.22708,-0.02798,0.048518,0.20156,-0.10445,0.023059,-0.027925,-0.002485,-0.002503,0.074026,0.09954,0.074051,-0.078977,-0.053464,-0.078977,-0.15548,0.12514,0.099601,0.048512,-0.13001,-0.028018,-0.028005,0.20156,0.099552,0.074062,0.074075,-0.027956,0.074087,-0.25755,0.023029,-0.10451,0.074038,0.023029,-0.078959,-0.18098,0.048598,0.023059,0.099515,-0.15553,0.32915,-0.053495,0.048518,0.074013,0.074044,-0.002479,-0.05339,-0.2065,-0.078977,0.048543,-0.002454,-0.053506,-0.053531,-0.027993,0.023041,-0.002448,-0.027925,-0.078953,-0.078972,0.048494,0.099588,0.074013,-0.002485,0.30358,-0.02795,-0.078977,-0.18097,-0.027944,-0.053433,-0.23204,-0.027993,-0.079014,0.099521,0.074051,0.099552,-0.053476,-0.078923,-0.078959,-0.027956,0.17606,0.023023,0.099534,-0.00251,-0.078977,0.02309,-0.053458,-0.10444,-0.18098,-0.13002,-0.079026,-0.079008,-0.13004,0.25259,0.023047,0.048531,0.12508,-0.053439,-0.053439,0.023065,0.22705,0.12507,-0.078996,-0.053495,0.023029,-0.027998,-0.05347,-0.078941,0.023078,0.048561,-0.15554,0.12505,0.12506,-0.13005,0.32912,0.1761,-0.25753,-0.10446,-0.078941,0.12508,-0.053506,-0.027969,0.099503,0.048531,0.048567,0.074038,0.17609,-0.053397,-0.12997,0.0485,-0.18105,-0.1045,0.023041,-0.078977,-0.12999,0.023054,0.074044,0.25265,-0.027913,-0.18103,-0.10453,-0.002479,0.074026,0.20154,0.048549,-0.078972,-0.027969,0.25262,-0.18097,-0.25752,-0.15551,-0.002454,0.048518,0.12504,0.25259,-0.13,-0.02795,0.074062,-0.078923,-0.053495,0.048549,-0.053482,0.099595,0.022998,0.099515,-0.028005,-0.027974,-0.25748,0.22713,0.17609,-0.12999,-0.079008,0.048561,-0.002461,0.074038,0.099564,-0.028005,0.099583,-0.15546,-0.079008,0.35464,0.048536,-0.078996,-0.18102,-0.028005,-0.18098,0.1506,0.30366,-0.027956,-0.079008,-0.25755,-0.23204,-0.002479,0.074026,0.20159,0.15055,-0.002448,-0.002443,-0.053458,0.023023,-0.1045,-0.053464,-0.10452,-0.079008,0.074038,0.12507,0.048555,-0.027944,-0.10444,0.048549,-0.1555,-0.12999,0.023023,0.099528,0.074038,0.074069,-0.078984
-0.18099,-0.078972,-0.027987,-0.002472,0.17606,0.15054,0.048555,0.15057,-0.02795,-0.13,-0.30851,-0.053488,0.048543,-0.002491,0.12507,0.17604,0.12508,0.048555,0.023072,-0.18099,-0.33401,0.023035,-0.002479,0.023041,-0.027993,0.12505,0.12503,0.15059,0.20158,-0.18098,-0.43604,-0.10447,-0.02798,-0.002436,0.099546,0.12504,0.12503,0.15059,0.048531,-0.20648,-0.10449,-0.053476,-0.002497,-0.07899,0.12504,0.17606,0.17608,0.12509,0.023078,-0.2065,-0.35951,0.023023,-0.027987,-0.15552,0.20156,0.12504,0.074051,0.12507,-0.027969,-0.12996,-0.18098,-0.2065,-0.1045,-0.053488,0.048536,0.25258,0.048531,0.09957,0.048549,-0.35951,-0.078959,0.048531,-0.20652,0.17607,0.074044,-0.002479,0.048543,-0.002461,-0.15548,-0.18099,-0.078984,0.099534,0.048536,0.048536,0.074044,-0.027974,0.15057,0.099559,-0.15548,-0.15548,-0.10447,-0.15549,0.09954,-0.079002,-0.027969,0.20158,0.12505,-0.002461,-0.078966,-0.002454,-0.25752,-0.002472,0.09954,-0.002491,0.074038,0.074044,0.074033,-0.078959,0.099577,-0.181,-0.33402,0.074038,0.023029,-0.078984,0.074038,0.20156,0.074038,0.1251,0.17609,-0.23197,-0.28303,-0.027974,-0.028018,-0.078984,0.17604,0.12507,0.048549,0.074075,0.048555,-0.2575,-0.181,0.12504,0.074057,-0.027987,-0.078984,0.099534,0.048561,-0.002454,0.074075,-0.2065,-0.18099,0.023017,0.023047,0.099534,0.099552,0.20156,0.048531,0.17608,-0.027969,-0.18097,-0.28301,-0.078959,-0.002491,-0.10447,0.099521,0.17606,0.12503,-0.027956,0.15057,-0.15548,-0.18098,0.023035,-0.027987,-0.027974,0.074044,0.048536,0.27811,0.074062,0.023065,-0.23201,-0.283,0.074057,-0.13002,-0.07899,0.099528,-0.02798,0.20157,0.17607,-0.10447,-0.027938,-0.20649,-0.027962,0.023041,-0.078996,0.099534,0.12504,0.15054,0.20159,0.048555,-0.181,-0.12996,-0.027987,-0.002485,0.023041,0.12505,-0.053476,-0.053458,0.12509,0.17607,-0.28302,-0.28301,0.25258,-0.079008,-0.13,0.27808,0.12504,0.023047,0.099552,-0.027962,-0.078966,-0.181,-0.05347,0.12505,-0.078984,-0.027962,0.15057,-0.002467,0.048573,0.15058,-0.2065,-0.43605,0.023023,0.12505,-0.13001,-0.002461,0.27808,0.099546,-0.002461,0.12508,-0.027956,-0.28301,-0.05347,0.12504,-0.13001,0.048543,0.22707,0.048543,-0.10447,0.12507,-0.078966,-0.35953,0.048531,0.17606,0.023047,-0.05347,0.17607,0.099546,-0.02795,0.099583,-0.15549,-0.30851,-0.027974,0.048506,-0.053482,0.074044,0.099534,-0.027969,0.099564,-0.078972,-0.078941,-0.15548,-0.02798,-0.1045,0.023023,0.048531,0.074038,0.099564,0.12507,0.023065,0.023054,-0.35954,-0.078977,0.15054,-0.1045,0.023047,0.20158,0.20158,0.12509,0.048549,-0.23199,-0.23199,0.099528,-0.20653,-0.002467,0.023023,0.099552,0.20158,0.074051,0.12508,-0.12997,-0.25751,-0.053451,-0.078984,-0.23201,0.023029,0.30358,0.15054,0.074051,0.22709,-0.181,-0.25749,0.023035,-0.027969,-0.053458,0.048531,-0.027974,0.023054,0.35461,0.12505,-0.23201,-0.35954,-0.002467,0.17606,-0.18102,-0.053495,0.20156,0.12507,0.048561,-0.002461,-0.12998,-0.2575,-0.027987,-0.2065,-0.078996,0.048525,0.27809,0.15054,-0.027962,-0.002467,-0.078966,-0.10447,0.12507,0.38013,0.048536,-0.23201,-0.18103,-0.0535,0.15057,0.45666,-0.10448,-0.46154,-0.002491,0.074038,-0.07899,0.023035,-0.002491,0.2781,0.32914,0.48218,0.15063,-0.2575,-0.25754,-0.4106,-0.25755,0.074008,0.17607,0.12507,0.15057,-0.053482,-0.15548,-0.10445,0.35462,0.12509,-0.46157,-0.46157,-0.053519,0.38008,0.32912,0.48218,-0.25748,-0.2575,0.074087,-0.002472,-0.35956,-0.079002,0.17601,-0.079002,0.17611,0.27809,-0.18097,-0.51255,-0.002467,0.074038,-0.027974,0.25257,0.32912,-0.002479,-0.10448,-0.078972,-0.078947,-0.15549,0.40566,0.38011,-0.20652,0.048536,-0.43613,0.17605,-0.053482,-0.10447,0.074124,-0.18097,-0.28306,0.30358,-0.027969,0.3291,-0.15552,0.048531,0.074044,0.048567,-0.12994,-0.23197,-0.18102,0.022992,0.25256,0.25255,0.27811,0.5077,-0.027956,-0.35955,-0.5126,-0.61464,-0.027956,-0.3341,1.1199,0.96682,-1.6605,-0.30855,1.8851,1.0434,-0.71665,-1.0228,-0.027974,-0.48715,-0.53809,-0.027969,-0.15554,0.20159,0.30359,0.27808,0.1506,0.074093,0.048567,-0.12998,-0.002461,-0.078984,0.17609,0.074038,-0.181,0.15057,-0.33408,-0.30851,0.048536,0.099559,-0.053458,0.30361,-0.10452,0.074013,-0.002516,0.1251,0.20164,-0.56361,-0.10447,0.40568,-0.61465,0.15055,0.048518,0.40563,0.3036,-0.15547,-0.41051,-0.05347,-0.15551,-0.002467,-0.00251,0.38011,0.048525,0.074038,0.35463,-0.002479,-0.027925,0.53325,-0.71666,-0.28304,0.48218,0.17607,-0.30857,-0.8187,-0.35959,0.17607,0.048555,-0.027956,0.048567,-0.078966,-0.46156,0.32912,0.78819,0.02301,0.048585,-0.05531,-0.004307,0.53326,-0.05347,0.15056,-0.10455,-0.079075,-0.079008,-0.07899,-0.002436,-0.053458,0.023084,-0.15548,0.023041,0.074044,-0.053482,0.17607,0.17603,-0.15556,-0.078953,0.048585,0.074118,-0.20651,-0.1045,0.35465,0.048536,-0.25759,-0.25757,-0.1045,0.22712,0.12507,-0.30851,-0.18093,-0.1045,0.15052,0.023029,0.023047,0.048482,0.15057,0.30364,-0.10445,-0.078947,-0.25749,-0.053476,0.22705,-0.028005,-0.002467,-0.25753,-0.10453,-0.13,0.20155,0.023084,-0.10443,0.02301,-0.053402,-0.20648,-0.028023,0.07402,0.048543,0.32914,-0.053488,-0.38504,-0.30851,0.83928,-0.23204,-0.23205,0.074051,-0.079002,0.022986,0.074038,-0.07899,-0.43607,0.20164,1.0434,0.15056,-0.4616,0.048561,-0.41059,-0.10452,0.43117,-0.002443,-0.28303,-0.053427,-0.15551,-0.13005,0.15054,0.30363,-0.078966,0.099546,-0.0535,0.074075,0.20163,-0.23202,-0.28303,-0.002491,0.048543,0.27808,0.15057,-0.053506,-0.1045,-0.12996,-0.10446,-0.07891,0.40566,-0.078984,-0.20653,-0.23209,-0.079039,0.35461,-0.027962,-0.10447,-0.10443,0.22716,-0.28308,-0.20652,0.074044,0.55869,0.27809,-0.20655,-0.38511,-0.18101,0.074106,0.15061,0.023059,-0.28304,0.22712,-0.027998,-0.002516,0.023047,-0.10449,-0.078996,0.15059,-0.02795,-0.10448,0.12504,0.099546,-0.027987,-0.053506,0.2016,0.53317,-0.13001,-0.46151,-0.58904,-0.053476,-0.027969,-0.12999,0.023023,0.17604,0.12504,0.048536,0.023029,0.099637,-0.002461,0.15052,-0.053488,-0.12998,-0.10453,-0.053519,0.68622,-0.053476,-0.4361,-0.46157,-0.15545,0.5587,-0.46157,0.27814,0.12503,0.15054,0.25262,-0.25759,-0.25756,-0.18098,-0.10447,-0.10447,0.15057,0.1251,0.2271,0.023047,-0.028011,0.048518,-0.1045,-0.053409,-0.053421,-0.18098,-0.10453,-0.10449,0.022986,0.20152,0.17604,-0.10445,0.023059,0.099637,-0.41053,0.12506,-0.13001,-0.18104,-0.10453,-0.10449,0.25261,0.35461,-0.078984,-0.1555,-0.23202,-0.13,0.43115,0.15059,-0.053446,-0.079008,0.02301,-0.23202,-0.23205,-0.078966,0.099608,0.32913,-0.1555,-0.15547,0.12509,0.20159,0.07402,0.15056,0.099559,-0.10447,-0.6656,0.20155,0.53317,-0.38506,0.43111,-0.028005,-0.13002,-0.10448,-0.15546,0.099608,-0.10444,0.099546,0.099528,0.023065,-0.02798,0.048506,0.074051,-0.027969,-0.078972,0.099588,-0.10447,0.048567,-0.002485,-0.078972,-0.15552,-0.028029,-0.20655,0.1251,0.32914,-0.053451,-0.283,-0.25754,0.30364,0.15057,-0.18101,-0.18102,-0.28307,-0.002472,1.0434,-0.20654,-0.18102,-0.053458,-0.18104,-0.18105,0.048487,0.38008,-0.23202,0.099601,0.1251,-0.20647,-0.078972,-0.078972,-0.10451,0.074075,0.17606,0.12502,0.074038,0.048518,-0.10449,-0.078959,-0.078959,-0.15548,0.27812,0.099626,-0.002516,0.048494,-0.028011,-0.053525,0.023059,-0.18098,-0.053421,-0.35955,-0.053513,0.22707,0.048543,-0.002485,0.30363,-0.20649,-0.10452,0.0741,-0.15542,0.099521,-0.3341,0.15057,0.32912,-0.15556,0.023017,-0.1555,0.074038,-0.20647,-0.027956,0.048555,-0.28305,0.2271,0.38014,-0.18106,0.15054,0.12507,-0.078984,-0.18096,-0.35951,-0.20653,-0.05347,0.09954,0.4056,0.17606,-0.13001,-0.027962,0.3291,-0.15549,-0.027938,0.048549,0.048543,-0.027962,-0.30856,0.22708,0.2271,-0.10449,0.17612,-0.02792,-0.30854,-0.10452,-0.18103,-0.002485,0.074087,0.022992,0.25259,0.2271,0.023041,-0.053451,-0.027974,0.074093,-0.002461,-0.027974,0.02301,-0.002521,0.22706,0.023029,-0.30851,-0.15548,-0.12994,0.20163,-0.13003,-0.10447,-0.15553,0.074013,0.074051,-0.23201,0.048555,0.45668,0.12514,-0.28304,-0.13001,-0.43612,0.12503,1.579,-0.30855,-0.64015,-0.33407,-0.10446,-0.25747,0.099552,0.048518,0.09957,0.074044,0.048525,0.17611,0.30363,0.20161,-0.2065,-0.20653,0.048536,0.074013,-0.078977,0.02301,0.074075,-0.10449,-0.002448,-0.15549,0.023047,0.20163,0.0485,-0.20652,-0.078972,-0.20654,-0.23209,0.53315,0.17613,0.76277,-0.35952,-0.41055,-0.38507,-0.10455,-0.002443,0.12505,-0.027969,0.32909,0.17609,0.12507,-0.02792,-0.25749,0.048543,0.074044,-0.079021,-0.30859,-0.20656,0.2016,0.099626,0.099564,-0.12996,-0.23201,-0.002497,0.15054,0.20158,-0.078977,-0.15552,0.074038,-0.41059,0.3036,0.78831,-0.078941,-0.1045,-0.181,-0.18105,-0.1045,-0.18103,0.12504,0.25261,0.099559,0.15057,0.04861,-0.30856,-0.12998,-0.053476,0.048525,0.074038,0.09954,0.099583,-0.002412,-0.027969,-0.053446,-0.15549,0.023023,0.20158,-0.15553,0.15057,-0.20655,-0.23201,0.12509,-0.02795,-0.12996,-0.18098,-0.18101,0.048506,0.12507,-0.002497,-0.002491,0.45669,0.023072,-0.05347,-0.18097,-0.15551,-0.18103,-0.027962,0.048506,-0.002503,-0.002467,-0.078984,0.12505,0.45672,-0.002412,-0.15551,-0.18101,-0.10452,-0.13002,-0.07899,-0.002467,0.048536,0.12508,-0.002454,-0.28302,-0.053488,0.2781,-0.10446,-0.30855,-0.0535,0.55873,0.20156,-0.053495,-0.12999,-0.35954,-0.18101,0.12504,-0.053488,-0.13001,-0.027993,0.074062,0.099552,-0.002454,0.074111,0.15061,-0.027956,-0.13002,-0.13002,-0.078984,0.12504,0.09954,0.023047,0.074038,-0.12996,-0.35951,-0.181,-0.002485,0.22707,-0.10449,0.048512,0.15057,-0.078984,0.15062,-0.10445,-0.027956,-0.13002,-0.079002,0.2016,0.20157,0.048512,-0.20654,-0.053458,-0.15552,-0.053446,-0.053433,0.30361,-0.002454,-0.1045,-0.028011,0.22707,0.099552,-0.20653,0.20159,-0.15547,-0.2575,-0.027969,-0.10449,-0.35957,0.12507,0.40567,-0.002472,0.099564,0.023041,-0.078977,-0.05347,0.023023,-0.027998,-0.079008,-0.027962,-0.027969,0.074062,0.12509,0.023035,-0.20649,0.048592,0.048543,0.023035,-0.0535,0.02301,-0.028018,0.099577,0.074051,-0.15548,-0.027938,-0.15548,-0.002472,0.45667,-0.027987,0.38013,-0.1045,-0.28308,-0.15551,0.023047,0.023078,-0.25749,-0.20655,-0.028005,0.04858,0.048549,0.17604,0.048531,0.074033,0.15059,-0.23199,-0.053409,0.15059,0.63528,-0.46157,-0.10456,0.20153,-0.25759,-0.15552,-0.15551,-0.078953,-0.078923,0.023023,0.38012,0.099583,-0.053495,0.022992,0.12504,0.023054,-0.2065,0.023096,-0.10442,-0.18106,0.12507,0.17609,-0.028018,-0.18108,-0.13002,0.17609,-0.23203,-0.10444,0.20166,0.048531,0.17608,0.15062,0.12505,-0.15556,-0.079014,-0.10452,0.048549,-0.02792,-0.38504,0.15058,0.45668,-0.078996,-0.15553,-0.002516,0.02301,0.074075,-0.10447,-0.053397,-0.053433,-0.05347,0.12504,0.074044,-0.028036,-0.079033,-0.002472,-0.10448,-0.078977,0.3802,-0.15545,-0.053488,-0.38509,0.20158,0.45664,-0.028023,-0.13002,0.023047,-0.35958,0.35466,0.3292,-0.23205,-0.13003,-0.15551,-0.13002,-0.181,0.20158,-0.002436,-0.13002,0.15059,-0.078941,0.074044,-0.053488,-0.12996,-0.027962,0.023023,0.17604,0.099552,-0.28307,0.4822,0.27817,-0.15551,-0.12998,-0.33406,-0.33404,0.15055,-0.10456,-0.3851,0.53318,0.40572,-0.10441,-0.25753,-0.053476,0.20155,-0.053519,0.12501,0.27808,0.09954,0.22712,0.04861,-0.35949,-0.10448,-0.027987,0.3546,-0.053482,-0.053482,0.023005,0.2271,-0.30855,-0.46155,0.22717,1.0689,-0.15552,-0.18104,-0.28312,-0.53817,-0.002479,0.15059,-0.18101,0.023059,-0.10442,0.074057,0.3291,0.30363,-0.10449,-0.15551,0.048518,-0.002479,0.38012,-0.12998,-0.48702,-0.13003,0.2016,0.099595,-0.15554,-0.079039,0.074026,-0.10449,-0.1045,-0.10443,-0.078959,0.17611,-0.078972,0.27807,-0.002516,0.022998,-0.0535,-0.10448,-0.15547,-0.053427,0.02309,0.35458,0.40563,-0.33407,-0.20655,0.30359,-0.33406,0.023047,0.2271,-0.15547,-0.12995,-0.13002,0.023029,-0.002443,-0.053519,0.25256,0.023054,0.074069,-0.15549,0.074093,0.2271,0.2016,-0.28306,-0.002443,-0.18102,-0.13005,0.023041,-0.002448,-0.027956,0.22713,0.048549,0.15055,-0.23202,-0.23203,0.022986,0.074057,-0.002479,-0.027993,0.099583,0.074111,0.15063,0.074026,-0.13004,-0.002448,0.023023,0.17606,0.32913,-0.41061,0.30363,0.15064,-0.43607,-0.12996,-0.20655,0.15057,0.048518,0.17604,0.25258,-0.027944,-0.10447,-0.20652,-0.002369,-0.18103,0.2016,-0.07899,0.17606,-0.079002,-0.053525,-0.053495,-0.053476,-0.027938,0.12513,0.17609,0.17609,-0.13005,-0.33405,0.30363,0.40564,-0.33406,-0.079021,-0.10447,-0.12995,-0.079008,-0.053458,-0.053464,-0.002503,0.099534,0.15054,-0.002461,0.25267,-0.078923,-0.30851,-0.002472,-0.053495,0.048536,-0.053525,0.099503,0.074038,-0.002412,0.12509,-0.41054,-0.027938,-0.053482,-0.23201,-0.027993,0.17603,0.25254,-0.078977,-0.002423,-0.10449,-0.027944,-0.10447,-0.13001,-0.027987,0.2781,0.32912,-0.053495,-0.13005,-0.027962,-0.181,-0.053433,0.099637,-0.027969,-0.079033,-0.02798,0.074057,0.15052,0.099564,0.048525,0.023023,-0.2575,-0.15545,-0.12999,-0.002467,0.074044,0.35466,0.074013,0.074013,0.023035,-0.10451,-0.18098,0.074087,-0.10445,-0.10449,-0.053464,-0.027974,0.073995,-0.002485,0.15056,0.17607,-0.078898,-0.15545,0.074057,0.38017,-0.10452,-0.079026,-0.46165,-0.23209,0.32913,0.38018,-0.35951,-0.25748,0.15057,-0.002491,-0.053476,0.048525,-0.10453,0.22711,0.048585,-0.10449,-0.027944,-0.12995,0.02301,0.048518,0.023035,-0.027969,-0.053495,0.099515,0.12509,0.15059,-0.10449,-0.20647,-0.38503,0.2526,0.07402,-0.053488,-0.13002,0.12505,-0.12999,-0.053464,-0.12995,-0.10445,0.048531,0.023035,0.048555,0.099521,0.12502,0.2781,0.15056,0.023078,-0.05347,-0.10444,-0.002467,-0.002485,-0.18102,-0.23207,0.099534,0.30361,-0.23202,-0.28307,-0.10447,0.3802,0.1251,0.048512,-0.15551,-0.18103,-0.10451,0.09954,0.023078,0.048561,0.099564,0.35465,-0.18097,-0.053488,0.023023,-0.30858,-0.079039,0.12504,-0.002443,-0.10447,0.023096,-0.002436,0.023047,-0.002516,-0.20654,0.2526,0.50765,0.023035,-0.002443,-0.23204,-0.15552,-0.027944,-0.002436,0.074038,-0.053464,-0.078977,-0.053531,0.023017,-0.053476,-0.027974,0.40566,0.32917,-0.10449,-0.079033,-0.02798,-0.23202,-0.15553,0.35464,0.023023,-0.12999,-0.38505,0.27815,-0.10448,-0.002467,-0.002491,0.20155,0.023029,0.02301,0.3291,0.074087,-0.20646,-0.18098,0.048561,-0.25755,-0.002461,-0.027987,0.15052,0.048536,0.099546,-0.053433,-0.002436,-0.02792,-0.053482,-0.078996,-0.05347,0.099534,0.17607,-0.053495,-0.053458,-0.078972,-0.35954,-0.10447,0.22707,-0.18102,-0.002467,0.17612,-0.13003,0.20159,0.074026,0.023035,0.099583,-0.00243,-0.15549,-0.053488,0.15059,-0.20655,0.0485,-0.053495,0.099534,-0.027956,0.09957,0.20167,-0.15548,-0.20652,-0.18099,-0.079008,-0.10452,0.048536,0.12504,0.15062,0.17612,-0.23203,-0.18102,0.048531,-0.15548,-0.027962,-0.028018,0.17604,-0.053451,0.023084,0.099588,-0.15549,0.022998,0.20158,-0.002454,-0.13001,-0.002485,-0.002467,-0.1045,-0.078966,0.27814,0.048585,-0.30853,0.023017,-0.18102,0.15059,0.20157,-0.002516,0.074044,-0.13,-0.002467,-0.053402,-0.10449,0.048494,0.074062,-0.0535,0.15054,-0.078977,-0.12996,0.1506,0.099632,-0.12999,-0.23202,-0.25758,-0.02798,0.45664,0.20155,0.074033,-0.18103,-0.15546,-0.078947,-0.12998,0.023035,-0.0535,0.20157,0.22708,-0.10451,0.15054,0.048561,0.15059,0.12511,-0.078947,-0.18101,-0.028018,-0.002467,0.099559,0.15053,0.048543,-0.053482,-0.10448,-0.078941,0.20163,0.20159,-0.181,-0.23202,-0.079008,-0.15551,0.022986,0.023035,0.074038,-0.002485,-0.078904,0.12509,-0.07899,-0.2065,-0.181,0.074013,0.15056,0.074038,0.074057,-0.12996,-0.1044,-0.1045,-0.00251,-0.002467,-0.0535,-0.002485,-0.002461,-0.027987,0.20161,-0.25748,-0.00243,-0.05347,-0.079026,0.023023,-0.02798,0.20155,0.32914,-0.10449,-0.079002,-0.20649,-0.30854,0.023047,0.38016,-0.078977,0.023017,-0.002516,0.074051,-0.078959,-0.053476,-0.10447,-0.053433,0.048573,0.023005,0.048494,0.17607,0.12507,-0.002443,-0.15547,0.023047,-0.00243,-0.41057,0.07402,0.30359,-0.078959,-0.053488,-0.053519,0.099515,0.074038,0.20164,-0.027895,-0.23201,-0.15551,-0.002491,-0.027993,0.074013,0.048494,0.048531,-0.02795,-0.002443,-0.053439,-0.20645,-0.2065,-0.10451,0.30361,0.074033,-0.002497,0.074026,0.048536,0.048549,-0.027944,-0.10445,-0.28303,-0.053458,0.15059,0.074033,-0.10453,-0.002467,0.2526,-0.0535,-0.10444,0.099601,-0.15552,-0.23203,-0.12998,0.09954,0.22706,0.12505,-0.053446,-0.12998,-0.12998,-0.053427,0.12509,-0.028018,-0.07899,-0.002479,0.17604,0.15054,0.023017,-0.002448,0.023072,-0.23199,-0.078953,0.099546,0.023035,-0.053506,0.048518,0.074038,-0.18098,-0.002467,-0.027956,-0.15545,0.022998,0.074038,-0.02795,-0.079021,0.22707,0.023023,0.074062,-0.002479,-0.3085,0.20164,-0.078984,-0.12999,0.048536,-0.079002,-0.028018,0.022986,-0.078984,-0.027944,-0.078959,0.22716,0.38013,0.02301,-0.18101,-0.10455,-0.079021,0.048531,-0.027962,-0.12996,0.048573,-0.078947,0.12508,0.20153,-0.028005,0.12505,-0.027993,-0.027987,-0.078977,-0.10447,-0.18099,0.074118,0.074093,-0.053506,-0.027993,0.023017,0.17606,-0.002491,-0.002448,-0.15553,0.048555,0.074087,-0.15549,0.023023,0.048549,-0.027956,0.099521,0.074038,-0.12996,-0.05347,-0.078959,-0.002423,-0.053476,0.15052,0.048543,-0.027987,0.15055,0.15057,-0.053488,-0.027969,-0.10444,-0.078947,-0.053464,-0.13002,-0.00251,-0.027969,0.20155,-0.028005,-0.053488,0.023023,0.20163,-0.10445,-0.10449,-0.15552,0.099577,0.074051,-0.028005,-0.0535,-0.027962,-0.027969,-0.027925,-0.00243,0.074057,0.12505,-0.027993,-0.079008,-0.027987,0.17606,0.074057,-0.15548,-0.30851,0.25263,0.15059,-0.23204,-0.002485,-0.10452,-0.079014,0.22705,0.048561,0.1251,-0.027931,0.099613,-0.28306,-0.18102,-0.23203,0.15056,0.17607,-0.13007,-0.002448,0.20159,0.12508,-0.053458,-0.053464,0.15057,-0.1045,-0.002491,-0.002497,-0.028005,-0.078959,0.15059,0.048592,-0.28298,-0.1045,-0.053506,0.074033,-0.027974,-0.027993,0.17605,0.048543,0.20156,-0.053433,0.0741,-0.027962,-0.18104,-0.12998,-0.10453,0.074044,0.43115,-0.078928,-0.002467,-0.05347,-0.078984,-0.10452,-0.02798,-0.027962,-0.053519,-0.027993,0.22709,0.30363,-0.027974,-0.15546,0.074081,-0.07899,-0.002479,0.17607,-0.079002,-0.02798,0.12505,-0.027974,-0.053439,0.023078,-0.15549,-0.027993,0.22706,0.074062,-0.18103,0.099534,-0.20651,-0.15548,-0.002461,-0.027944,-0.1555,0.099528,0.099552,0.023059,0.048512,0.074038,0.3036,0.023047,-0.002443,0.17614,-0.027956,-0.25756,-0.20656,-0.18102,-0.15552,0.048531,0.17604,0.17612,-0.002479,-0.078947,-0.002436,0.048561,0.12504,-0.15553,0.048555,0.12502,0.2271,0.074051,-0.053458,-0.33404,-0.10446,0.023078,-0.10452,-0.15551,0.07402,0.074026,-0.078953,0.099564,0.20159,-0.15548,-0.13,0.074057,0.099564,0.12507,-0.15553,-0.027993,0.048531,-0.002467,0.023065,-0.027944,-0.053451,-0.002448,-0.12998,-0.1555,0.09951,0.17605,-0.002491,0.15057,0.04858,-0.078935,-0.12999,-0.15554,-0.15552,0.43117,0.12504,-0.18102,-0.13001,-0.15549,0.20158,0.20163,-0.053464,-0.10451,-0.028011,-0.028005,0.023035,0.30363,0.099546,0.09957,-0.15548,-0.10447,-0.027944,-0.2065,-0.18103,0.023035,0.15057,0.074013,0.023041,0.15059,0.023029,-0.078941,-0.18101,0.074069,0.099515,-0.2065,-0.10452,0.099546,0.2526,0.048555,-0.13,-0.20645,-0.15548,0.023041,-0.002485,0.048561,0.099528,0.023023,0.023017,0.023059,0.43115,-0.232,-0.181,-0.15549,-0.13003,-0.10447,0.20157,0.074051,0.023023,-0.053476,-0.027944,0.023047,0.048598,-0.002461,-0.10453,0.023017,0.099552,0.048518,0.048506,-0.053476,-0.232,0.099608,0.048622,-0.1045,-0.079026,-0.20652,0.048531,-0.002491,0.023047,0.048555,0.048536,0.074087,0.023103,0.023041,-0.079008,-0.10451,-0.028011,-0.053495,-0.027998,0.023059,-0.002436,0.048567,-0.027925,-0.027969,-0.079002,-0.002467,0.12504,-0.053495,-0.079014,0.09957,-0.02792,-0.10446,-0.12996,-0.1045,0.048512,0.023047,0.20159,0.15052,0.25254,0.048555,-0.10446,-0.20646,0.023065,-0.053476,-0.18103,0.048536,0.12508,0.15057,0.022998,-0.027962,-0.15552,-0.10448,0.023084,-0.002472,-0.028005,0.20162,-0.053488,-0.027998,0.12504,-0.028005,-0.053476,0.099601,-0.078959,-0.02795,0.099588,0.048543,-0.002472,-0.07899,-0.002491,-0.02798,-0.027956,0.074081,-0.078966,-0.002461,0.22709,-0.10452,0.074033,-0.13002,0.15053,0.048561,-0.10449,0.02309,-0.10444,0.17609,-0.13001,-0.20653,0.074026,-0.027993,0.12504,0.12505,0.12505,-0.25748,-0.18098,0.25264,0.074038,-0.053446,-0.23205,-0.053495,0.15056,0.048536,0.048506,-0.078972,0.074118,-0.33406,-0.18101,0.15058,-0.053458,-0.027998,0.023047,-0.028005,0.12508,0.17609,-0.027944,-0.10447,-0.20653,-0.20651,0.20161,0.048536,-0.13005,0.023017,0.048525,0.12508,-0.12996,-0.027974,-0.002461,0.074062,0.099546,-0.079008,0.048536,0.023078,-0.0535,-0.18098,-0.15548,-0.33403,0.32911,-0.10449,0.12501,0.20156,0.074038,-0.053451,-0.12999,-0.15546,-0.10447,-0.027969,0.048506,0.27811,-0.0535,-0.078977,0.074087,-0.12999,-0.15553,-0.053476,-0.078966,0.02301,-0.002472,-0.02798,0.099564,0.12505,0.17608,-0.002467,-0.002472,-0.18095,-0.027944,0.074069,-0.10452,-0.053495,-0.053519,-0.028005,0.074033,0.074051,0.023035,0.12514,-0.053421,-0.002479,-0.002479,0.07402,0.048531,0.022986,0.023023,-0.053439,0.12505,0.048585,-0.2065,0.023035,-0.23202,0.074033,0.09957,0.048531,0.30358,-0.02798,0.048555,-0.078953,-0.20649,-0.0535,-0.079021,-0.13,0.074026,0.12505,0.25263,0.27814,-0.15552,-0.12998,-0.027925,0.12507,-0.13007,-0.00243,-0.12999,-0.002497,-0.07899,0.12509,0.12505,-0.002436,-0.18097,-0.1045,0.12504,0.048555,-0.078972,0.15052,0.12505,0.048561,-0.02795,-0.078953,-0.053427,-0.002479,-0.028023,-0.078977,-0.002479,0.048512,0.04858,0.048543,-0.027956,-0.12994,-0.12995,-0.10449,0.074033,0.12504,-0.002491,-0.23205,0.048531,0.30363,0.20162,-0.20647,-0.33405,0.17607,-0.20653,-0.028011,-0.053495,-0.10452,0.074026,0.023072,0.12508,0.048592,-0.12995,-0.078996,0.17607,-0.002454,0.099521,0.023047,0.048506,-0.078996,-0.027944,0.023047,-0.18098,-0.07899,-0.0535,-0.002467,0.099588,0.02298,-0.027993,0.17608,0.074062,-0.002436,-0.053451,-0.20656,0.099552,-0.027987,0.048525,0.023047,-0.002479,0.09957,0.074106,-0.25749,-0.12998,0.074057,0.048506,0.048555,0.09954,0.048518,-0.002467,-0.10452,0.023059,-0.10448,-0.12999,0.048549,-0.20652,0.17609,0.074044,0.09954,0.35458,-0.15551,-0.18101,-0.20646,-0.078935,0.09954,-0.15553,0.40567,-0.15555,-0.079014,0.38017,-0.053451,-0.13002,-0.10449,-0.2575,-0.23202,0.17607,-0.002461,0.35462,0.12505,0.048543,-0.053531,0.099528,0.074093,-0.23198,-0.33404,-0.027969,-0.02795,0.2271,0.12506,0.023047,0.12504,0.099564,-0.12998,-0.15546,-0.07899,-0.10449,-0.02798,0.45668,-0.027993,-0.15553,-0.10449,-0.002503,-0.027931,-0.18095,-0.002479,-0.027974,-0.078996,0.12504,0.17606,0.17607,-0.10449,0.074087,0.22714,-0.12995,-0.20655,-0.25757,0.32913,-0.15551,0.048549,-0.02798,0.15056,0.023035,0.074093,-0.28302,-0.027969,0.023059,-0.23203,0.048543,0.12503,0.02301,-0.053464,-0.002443,-0.10447,-0.15546,0.048536,0.023023,0.15059,-0.002491,0.074008,0.12508,-0.078977,0.023035,-0.053451,-0.15547,-0.02798,-0.002467,-0.027969,0.099588,-0.027998,-0.027998,-0.002448,-0.053495,-0.18098,-0.12994,-0.027969,0.45659,0.023017,-0.181,-0.078977,-0.053513,0.099552,0.023047,-0.027956,-0.078923,-0.18096,-0.18101,-0.00251,0.12503,0.12499,-0.18103,-0.10449,0.43121,-0.027931,-0.15543,-0.053482,0.023017,-0.079008,0.048512,0.02301,0.048531,0.023035,0.38017,-0.10445,-0.02795,-0.10449,-0.181,-0.027974,0.099528,0.25258,0.17606,0.048531,-0.078984,-0.027931,-0.078935,-0.079033,-0.053506,-0.12996,-0.027962,0.048518,0.023023,-0.027962,0.099552,0.048592,-0.18097,0.099559,0.048531,-0.053488,-0.002491,-0.027987,0.074038,-0.053464,0.12509,0.099608,-0.25749,-0.079008,-0.15553,-0.053495,0.048536,0.099521,0.099521,-0.027956,0.099588,0.074087,-0.078923,-0.078941,-0.20653,0.17604,-0.053531,-0.20655,0.25258,0.15059,0.20161,-0.053439,-0.027944,-0.18101,-0.053506,-0.13,-0.18104,0.048525,0.17608,0.15059,-0.10445,-0.053458,0.023047,-0.053519,0.17603,0.2271,0.048536,-0.002448,-0.027962,-0.053464,-0.002454,-0.05347,-0.181,-0.079008,0.20159,0.35462,0.099552,-0.23201,-0.028011,-0.10449,-0.1045,-0.027974,-0.10446,0.099564,-0.002467,0.43116,-0.027987,-0.23209,-0.027974,-0.002436,-0.027962,0.048592,-0.027925,-0.23204,0.074002,0.099546,-0.02798,0.099528,0.17606,0.099577,-0.05347,-0.002443,-0.20647,-0.13002,-0.12999,-0.027969,0.048536,0.023035,-0.027969,-0.0535,0.048567,-0.00243,-0.10448,-0.078996,-0.027987,-0.002491,-0.002472,0.048543,0.17606,-0.027956,-0.053458,0.023054,0.074087,-0.12997,-0.13004,-0.002479,-0.002479,0.099521,0.074062,0.09957,-0.12999,-0.18097,-0.15545,0.023054,-0.13,-0.078966,0.12502,-0.002491,0.09954,0.20161,-0.13002,-0.18098,-0.20647,-0.1555,0.02301,0.12505,0.07402,0.20154,0.023047,0.048561,-0.002412,-0.078947,-0.20647,-0.002436,0.022986,0.02301,-0.002516,0.099515,-0.002467,0.099577,-0.002436,-0.002454,-0.12995,0.099559,-0.053495,-0.027987,-0.079002,0.023023,0.023023,-0.053451,0.074081,0.048567,-0.053451,0.074038,0.048567,-0.053506,-0.1045,0.022992,0.27811,0.023059,-0.10449,-0.10444,-0.15549,0.023054,-0.10452,-0.002479,0.09954,0.12502,-0.15549,-0.05347,-0.027956,-0.053433,0.099559,-0.05347,-0.079039,0.30363,0.02301,0.048525,0.04858,-0.1555,-0.35954,-0.002448,0.023096,-0.0535,-0.15553,0.30359,-0.002467,-0.027998,0.023035,-0.002454,0.15059,-0.05347,-0.18099,0.023035,0.099564,-0.027956,0.023029,-0.053506,0.099552,-0.027993,-0.002448,-0.078959,-0.053427,-0.053482,-0.002461,0.32912,0.17606,-0.18101,-0.10449,-0.13001,0.048543,-0.1045,-0.078935,-0.02798,0.074057,-0.10448,0.023029,0.099546,0.074057,0.023029,-0.027993,-0.002454,-0.10447,-0.027956,0.074038,0.25262,0.02301,0.023005,-0.053488,-0.10449,-0.078996,-0.25749,-0.053446,0.074069,0.32912,-0.05347,0.048518,-0.1045,-0.079002,-0.002448,-0.053482,0.099559,-0.10446,-0.078996,-0.05347,0.048543,0.048555,0.048512,-0.027969,-0.027974,0.074069,-0.078966,0.023084,-0.078996,-0.053476,-0.002472,0.22702,0.09951,0.12504,0.023084,0.074075,-0.15546,-0.35954,-0.002443,0.30363,-0.002485,-0.10453,0.022998,-0.027974,-0.053482,0.12507,0.023059,0.023047,0.023035,-0.28306,0.43117,0.53325,-0.053495,-0.15556,-0.13002,-0.20652,-0.10448,-0.10445,-0.12999,0.27808,-0.027956,0.048543,0.023005,0.074062,0.099564,-0.02798,-0.12996,0.023065,0.099583,0.09957,0.023005,-0.027998,-0.079026,-0.079002,-0.002454,-0.027974,0.1761,0.15062,-0.078984,-0.10449,-0.053464,-0.053488,-0.027993,0.048549,-0.053488,0.15057,0.074057,0.074057,-0.20647,0.023047,0.099552,-0.053488,0.048512,-0.053495,0.099559,0.20161,-0.10449,-0.2065,-0.027987,0.3036,0.023035,-0.25754,-0.002479,-0.002461,-0.027938,-0.053458,-0.05347,0.09957,-0.027987,0.023005,0.023035,0.074062,0.12503,-0.002491,-0.027962,-0.12998,0.1251,0.048592,-0.13003,0.099528,-0.18102,-0.079008,-0.053525,-0.02795,0.099564,0.074069,-0.027956,-0.078947,-0.12999,-0.002485,-0.002454,0.38016,0.15057,-0.079002,-0.002479,0.023023,-0.18098,-0.25746,-0.13,-0.002485,-0.053464,0.15056,-0.13001,0.099528,0.074062,0.048573,-0.10447,-0.053458,0.048555,-0.027956,-0.13,0.073989,0.25257,0.048555,-0.1555,-0.15552,-0.15548,-0.15544,-0.10448,-0.15552,0.048549,-0.07899,0.27809,0.45664,-0.15552,-0.05347,-0.002443,-0.078959,-0.10448,-0.028005,0.023023,-0.078984,0.099546,-0.002479,-0.12998,0.023041,-0.053427,-0.002436,0.17607,-0.18102,-0.15552,0.023023,0.17608,-0.002491,-0.078959,-0.002461,-0.05347,-0.078953,-0.13001,-0.13002,-0.027956,0.12505,0.074038,0.023059,-0.078977,-0.002467,0.099608,-0.078977,0.048543,-0.15551,-0.10449,-0.05347,0.30359,-0.027969,-0.1045,0.048518,-0.12994,-0.15546,0.09954,0.17607,-0.0535,-0.053495,-0.053495,0.048531,0.22711,-0.002443,-0.078959,-0.10444,-0.05347,0.15055,0.074062,-0.053513,0.20154,0.074013,-0.002485,-0.002448,-0.10447,0.099626,-0.15548,-0.053482,0.023041,-0.028005,0.12505,-0.002491,0.048561,-0.002467,-0.053476
-0.33402,-0.078984,0.17606,0.17606,0.074033,0.12508,0.12505,-0.078972,0.048555,-0.1555,-0.23201,-0.027987,0.12504,-0.05347,0.048543,-0.05347,0.023065,-0.027938,-0.10446,-0.23201,-0.23202,0.023035,0.30356,0.09954,0.12504,0.074033,0.099564,0.048561,-0.078947,-0.002448,-0.23201,-0.078966,0.15052,-0.002467,0.20156,0.074051,0.09957,-0.053482,-0.15548,-0.181,-0.23201,0.048536,0.22704,0.27808,0.22706,0.25257,0.099552,-0.002461,-0.12995,-0.33401,-0.35948,-0.20648,0.22707,0.30359,0.12503,0.099534,0.074044,-0.078996,-0.23201,-0.15548,-0.25749,-0.12996,0.22705,0.15052,0.30357,0.30356,0.099559,-0.027969,-0.23199,-0.283,-0.20646,-0.20649,0.099528,0.30356,0.43109,0.32905,0.25257,0.25258,-0.053476,-0.35952,-0.30846,-0.28297,-0.027969,0.15057,0.074044,-0.02798,0.074044,-0.02798,-0.18101,-0.23201,-0.30849,-0.23198,0.30358,0.25256,0.20155,0.22708,0.25259,0.099564,-0.232,-0.2065,-0.18097,-0.18097,0.074044,0.12504,0.25258,0.22705,0.15056,0.12505,-0.1555,-0.283,-0.15547,-0.12998,0.15055,0.30358,-0.002485,0.023029,0.30359,-0.027956,-0.12997,-0.078953,-0.43603,-0.23199,0.22705,-0.002491,-0.05347,0.20157,0.12504,-0.181,-0.002443,-0.053464,-0.28302,-0.232,0.25257,0.099528,-0.10449,0.12505,0.12505,-0.10447,-0.002448,0.023059,-0.20647,-0.232,0.12504,0.17605,-0.002472,-0.002467,0.09954,0.15054,0.048549,-0.053464,-0.15546,-0.12999,-0.027974,0.09954,0.023047,0.048549,0.20158,0.17606,0.099559,0.048555,-0.30853,-0.20649,0.15057,-0.002491,-0.13,0.17607,0.15055,-0.002461,0.074081,-0.002454,-0.20649,-0.18098,0.099515,0.048536,0.074051,0.20155,0.15056,0.074051,0.17607,-0.12999,-0.2575,-0.027956,0.048543,-0.15551,0.048536,0.15055,-0.002467,0.048536,-0.027962,-0.078947,-0.28302,-0.2065,0.20157,0.023017,-0.078977,0.22706,0.20157,0.17607,0.099546,-0.027938,-0.25751,-0.23198,0.12504,-0.027969,-0.027974,0.074044,0.099559,0.074038,0.074075,-0.13,-0.23199,-0.181,0.074033,0.048536,-0.078984,0.22708,0.074051,0.023047,0.12509,-0.053476,-0.283,-0.181,0.15055,0.099559,0.023023,0.15057,0.048531,-0.002461,0.12507,-0.078972,-0.35951,-0.10449,-0.002472,-0.002485,0.023054,0.099546,0.023029,0.12507,0.12506,-0.078972,-0.18101,-0.078984,0.20156,0.02301,-0.078996,0.074044,0.12505,0.074075,0.023065,-0.10447,-0.20647,-0.18099,0.12505,-0.13001,-0.078984,0.22707,0.12504,0.074057,0.25259,-0.05347,-0.18098,-0.20649,-0.18101,0.048536,-0.02798,0.099564,0.17604,0.099546,0.074062,-0.02798,-0.10447,-0.12999,0.15055,0.048549,-0.027969,0.17608,0.15057,0.048536,0.048561,-0.002448,-0.12998,-0.12999,0.023035,0.099521,-0.053495,0.099552,0.25258,0.023047,0.023059,-0.002454,-0.283,-0.12999,0.17606,0.099528,-0.002485,0.023047,0.15055,0.023054,0.17609,-0.078953,-0.2065,-0.30851,0.099534,-0.07899,0.074026,0.17608,0.12503,0.17607,0.12505,0.048573,-0.25751,-0.18098,-0.053495,-0.002467,-0.002472,0.22708,0.048536,0.099564,-0.078984,-0.10446,-0.181,-0.18099,0.15053,0.074051,0.074038,0.15058,-0.053476,-0.078972,-0.027956,-0.12997,-0.13,-0.10446,0.17603,-0.02798,-0.10451,0.12507,0.12503,0.048555,0.023041,0.12508,-0.30852,-0.23198,-0.002454,-0.10449,-0.027969,0.17606,0.15056,0.17606,0.20158,-0.10449,-0.18097,-0.20653,0.17606,0.048531,-0.13,-0.15551,0.2271,0.048561,0.099564,-0.078953,-0.2065,-0.078959,0.099534,0.02301,-0.002467,0.074033,0.074044,0.074057,0.048549,-0.078959,-0.18097,-0.28301,0.048549,0.12503,0.048531,0.12505,0.15054,0.023059,0.023054,-0.12999,-0.25749,-0.10447,0.074033,0.12505,0.02301,0.074044,0.09954,-0.027962,0.099588,-0.15549,-0.25748,-0.18101,-0.027993,0.15055,0.17605,0.17607,0.22707,0.15057,0.099583,-0.078972,-0.2575,-0.20651,-0.078984,0.023017,0.09957,0.074044,0.20158,0.048543,0.074062,-0.027962,-0.05347,-0.2065,0.074026,-0.10449,-0.002485,-0.002467,0.15054,0.023059,0.099564,-0.10447,-0.232,-0.10447,-0.027974,-0.053495,-0.053458,0.023023,0.12506,0.22707,0.15057,-0.027956,-0.23198,-0.25748,-0.053488,-0.181,-0.002485,0.12506,0.20155,-0.002454,0.17607,-0.002454,-0.23201,-0.12998,0.12505,-0.027993,-0.002461,0.099534,0.048561,-0.027956,0.048567,-0.053451,-0.20649,-0.078972,0.12503,-0.02798,-0.028005,0.023041,0.15054,0.12509,0.22709,-0.027956,-0.30851,-0.18099,-0.10448,0.023023,-0.02798,0.099528,0.12505,0.09954,0.048536,-0.10446,-0.23199,-0.18098,0.023029,-0.053482,0.074051,0.17604,0.15057,0.074033,0.12508,-0.053464,-0.30852,-0.078966,0.074038,0.048531,-0.053476,0.12504,0.023054,0.023035,0.1251,-0.053476,-0.35951,-0.1555,0.048512,0.12505,0.12504,0.15055,-0.002454,0.099564,0.072198,0.021195,0.074075,-0.027938,-0.002503,-0.02798,-0.10449,-0.079002,0.048518,-0.027962,-0.002467,0.074057,0.074093,-0.18097,-0.027993,0.074026,0.074051,-0.002472,-0.027993,0.074044,0.074062,-0.10447,-0.10447,-0.078972,0.099546,-0.002497,-0.07899,-0.078977,-0.027974,0.023041,-0.15549,-0.027956,0.1251,-0.002436,0.022998,0.022998,-0.027993,0.15056,0.02301,0.023054,-0.053464,-0.10448,-0.078941,-0.078947,-0.002485,0.074038,0.074057,0.17604,0.023029,-0.053451,-0.002467,-0.002423,-0.078947,-0.07899,0.048518,-0.028005,0.12505,0.074038,0.07402,-0.10445,0.099577,-0.12996,-0.18096,0.048585,0.048531,-0.13002,-0.027987,0.048494,0.15056,0.12506,-0.027956,-0.078953,-0.15546,-0.078959,0.17605,0.048506,0.023029,-0.053506,0.12505,-0.002418,-0.053451,-0.10448,-0.10444,-0.12998,-0.15554,0.074013,0.048549,-0.002491,0.17604,0.023047,-0.053476,0.099564,-0.10444,-0.12998,0.099546,-0.078984,0.074044,0.023047,-0.0535,-0.05347,-0.027962,0.2271,0.048585,-0.12999,0.048525,-0.002485,0.048512,-0.027974,0.048512,0.048549,0.048555,-0.15551,0.12512,0.023078,0.023023,0.099534,-0.027993,0.023023,0.15056,0.023035,-0.027956,0.023054,-0.078941,-0.10445,-0.13002,0.048555,0.048543,0.074033,0.023029,-0.002479,0.023047,-0.078972,-0.18097,-0.053451,0.25254,0.048536,-0.10449,0.048531,-0.10448,-0.078984,0.048567,0.023059,0.099577,0.023059,-0.079021,0.099521,-0.027944,-0.027993,0.15055,0.099528,0.074026,-0.027938,-0.15546,-0.30851,-0.002467,0.43113,-0.079002,-0.02798,0.048518,-0.05347,0.02309,-0.053451,0.023078,-0.2575,-0.13002,0.17602,0.048555,0.074038,0.07402,0.12504,0.023072,-0.02795,-0.027925,0.023072,-0.027962,-0.053495,-0.10448,0.048561,0.20154,0.25256,0.15055,-0.002472,-0.053451,-0.12999,-0.0535,0.023017,0.023084,-0.12999,0.022998,0.30363,-0.053476,-0.10445,-0.002436,-0.002418,-0.25755,-0.66572,0.22708,1.1709,-0.027987,-0.2065,-0.30853,-0.15551,-0.18098,0.048555,0.099515,0.15054,-0.05347,-0.002491,0.099564,0.15058,0.17609,-0.02795,-0.23201,-0.41055,0.38013,0.45666,-0.43609,-0.58921,0.63519,1.6811,-0.30854,-0.71664,-0.56356,-0.58914,-0.002516,0.17604,-0.002485,-0.43613,0.32911,0.43116,-0.23192,0.074106,-0.002436,-0.027944,0.17604,-0.35959,-0.078996,0.9668,-0.053513,-0.25756,-0.28306,0.40568,0.53325,-0.43605,-0.20655,-0.00251,-0.28305,-0.002497,-0.13,-0.46161,0.023023,0.66079,0.1251,0.20158,-0.078984,-0.18104,-0.053495,-0.002491,0.022998,-0.078947,-0.10447,0.074062,0.048604,-0.10447,-0.00251,-0.15553,0.35462,0.4567,-0.18103,-0.20653,-0.10449,-0.10446,0.023029,-0.23199,0.20159,0.022986,0.20155,0.2271,0.15056,-0.053476,-0.027956,-0.23201,-0.38504,0.20159,-0.027956,-0.027987,0.40563,0.074062,0.09954,-0.053506,-0.10449,-0.30853,-0.23194,-0.23197,0.048458,-0.15555,-0.079021,0.35462,0.074038,0.25261,0.12509,0.074081,0.53325,-0.15549,-0.18105,-0.20658,-0.15553,-0.15551,0.12512,0.048543,0.048543,-0.20652,-0.15548,-0.18098,0.12506,0.15059,0.023059,-0.027974,-0.002521,0.09954,0.22712,-0.053476,0.023029,0.074051,-0.053488,-0.02798,0.12507,-0.002497,-0.053482,-0.053476,-0.053421,-0.12998,0.25263,-0.5636,0.3291,1.1198,-0.078977,-0.56363,-0.28306,-0.20654,-0.078996,-0.25752,-0.07899,0.15065,0.12505,0.25255,-0.053476,-0.002497,0.023035,-0.078947,0.12508,-0.15546,-0.027925,0.17608,0.20156,-0.078984,-0.28303,-0.028018,-0.10449,0.074033,0.023041,-0.053506,-0.027913,0.023078,0.30358,-0.10449,-0.20652,0.074038,0.099515,0.048543,-0.002448,0.023054,-0.283,-0.078966,-0.053464,-0.002485,-0.027962,0.022998,0.074062,0.15056,0.048592,-0.10449,-0.25749,0.12506,0.3036,0.048512,-0.002454,-0.079002,-0.07899,-0.12999,-0.053458,-0.18102,0.023047,0.099583,0.099497,-0.13004,0.53319,0.27808,-0.25751,-0.10447,-0.078972,-0.10444,-0.078953,-0.078972,-0.079014,0.023041,0.099528,0.15056,0.07402,0.074057,0.07402,-0.027962,-0.078935,-0.002448,0.20156,-0.13001,0.099552,0.15059,-0.002491,-0.15551,-0.053464,-0.027956,-0.027962,0.04861,-0.053506,-0.002485,0.048561,0.048531,0.22703,0.023047,-0.18099,-0.002467,-0.053409,-0.13001,0.27805,-0.002485,-0.12998,0.048567,0.099534,0.20159,0.22712,-0.41056,-0.30851,0.12508,-0.028011,-0.002479,0.023023,-0.002479,0.023078,-0.002461,-0.078972,0.048518,0.22712,-0.002423,-0.002479,-0.053506,-0.1045,0.074013,0.17606,-0.002461,0.023029,0.20161,-0.25748,-0.078947,0.38008,0.048506,-0.18101,-0.10451,-0.002491,-0.078959,-0.10444,0.048604,0.12512,0.099559,-0.028018,-0.13005,0.074008,-0.002448,0.09954,0.074081,-0.027944,-0.12997,-0.078984,0.04858,-0.002491,0.15052,0.12506,0.02301,-0.12998,-0.20653,0.048536,-0.027938,-0.18096,-0.078977,0.023005,0.2526,0.43118,-0.15553,-0.002479,-0.05347,-0.027974,-0.027974,-0.027931,-0.20649,-0.028023,0.074038,0.09957,0.023041,0.099559,0.12508,0.099552,-0.053476,-0.18096,-0.078972,0.12501,-0.053482,-0.002423,0.22705,0.074013,-0.053458,-0.002467,0.1506,-0.15549,-0.10448,-0.10449,-0.0535,0.074038,-0.002503,-0.053488,0.023084,-0.027962,0.17612,-0.002369,0.023041,0.048463,-0.053549,-0.028018,0.023041,-0.02798,-0.027956,-0.078972,0.023084,0.048598,-0.10448,0.048506,-0.002472,-0.027974,-0.027993,0.048555,-0.053476,0.048555,0.074062,-0.15547,-0.10449,0.27809,-0.15552,0.12504,-0.13002,0.12509,0.22711,-0.33403,-0.20648,-0.18099,-0.18098,0.022998,0.12505,0.15055,0.023023,0.09954,0.20158,0.25267,0.15057,0.048592,-0.2575,-0.079033,-0.28306,-0.18103,0.023041,0.074057,0.048549,0.099559,-0.053476,-0.12996,-0.053439,0.048476,0.099515,0.099552,0.023047,-0.02792,-0.02798,-0.078972,-0.053488,-0.10444,-0.12999,0.27812,-0.002516,-0.15551,0.022998,0.048525,0.074075,-0.053476,-0.027944,0.023084,-0.002461,0.15056,-0.053513,-0.053488,-0.079002,0.22713,-0.20649,0.099577,-0.002479,0.023035,-0.181,0.048506,0.048518,-0.12999,-0.053446,0.15057,-0.053439,0.048536,0.074069,-0.02792,-0.23204,0.023005,0.099546,0.15054,0.023041,-0.053464,0.074062,-0.002461,0.099577,-0.23198,-0.2065,0.099497,0.099564,-0.078966,0.074051,0.09954,0.048555,0.023035,-0.12998,-0.10447,-0.13002,-0.002491,0.12507,0.023023,0.1506,0.17609,0.048543,-0.181,-0.13001,-0.15547,0.023047,0.023041,-0.028005,0.048512,-0.002461,0.099583,-0.028005,-0.053464,0.22708,-0.053421,-0.078984,-0.002461,0.048531,0.023041,-0.181,-0.10451,-0.027993,0.074062,0.12507,-0.053451,-0.12999,0.25259,0.15058,-0.20651,-0.002485,-0.12998,0.023041,-0.027969,-0.10451,-0.002418,-0.027938,0.38011,-0.028018,-0.10448,-0.13002,0.17607,-0.002423,-0.078984,-0.18101,-0.2065,-0.15549,0.099552,0.074038,-0.027969,0.099564,0.023023,0.12509,0.1761,0.17608,0.12509,-0.05347,-0.23202,-0.23199,0.023017,-0.10451,-0.028018,0.07402,0.074051,-0.078953,-0.38506,0.32915,0.53319,-0.053506,-0.078996,-0.2065,-0.13007,0.25264,0.074069,-0.23201,-0.23203,0.023084,-0.02798,0.09954,-0.1045,0.07402,-0.027993,0.023041,-0.12993,-0.027944,-0.053433,0.71173,0.074038,-0.079021,-0.15554,-0.48709,-0.027993,0.09957,-0.35952,0.20161,0.89036,-0.25753,-0.41063,-0.25758,0.15056,0.58417,-0.23207,-0.30852,-0.10445,-0.002412,-0.10449,0.20163,-0.10453,-0.00251,0.86478,0.074013,-0.12999,-0.28303,-0.1045,0.22709,-0.053464,-0.56361,-0.30857,-0.18103,0.074062,0.5332,0.43117,-0.10454,-0.15552,-0.48711,-0.46154,0.73734,1.2219,-0.43612,-0.38513,0.074044,-0.38511,-0.35961,-0.35956,-0.1555,-0.28298,0.27815,0.43117,0.099534,0.099559,0.25258,-0.027998,0.099595,-0.20653,0.25265,0.074069,-0.18099,-0.23207,0.074013,-0.23207,0.40562,-0.027974,-0.10445,-0.12998,-0.13,-0.10447,-0.078966,-0.15552,0.17607,0.60967,-0.078984,0.12506,-0.053488,0.023017,-0.12999,-0.181,-0.2065,0.048555,0.43113,-0.25753,0.20155,-0.078953,-0.12999,0.048536,-0.053464,-0.053458,-0.002467,-0.053488,0.15054,0.27813,-0.027987,-0.18106,-0.181,-0.053488,0.12508,-0.053427,-0.002418,-0.079039,-0.33406,0.38013,0.73723,-0.35959,-0.027974,-0.181,-0.18097,-0.28304,0.35468,0.32909,-0.15556,0.023029,-0.002503,0.43116,-0.38503,-0.053464,0.12514,-0.2575,0.12505,0.22704,0.09951,-0.1045,0.023029,0.074062,-0.25751,-0.05347,-0.20652,0.12513,0.048585,0.12502,-0.0535,-0.053506,0.22707,0.12507,-0.10453,-0.25751,-0.078972,-0.002412,-0.02792,0.02301,0.048536,-0.12999,0.09954,0.12508,-0.002485,-0.027993,0.074057,0.023047,-0.078977,-0.10451,-0.002467,-0.1555,0.048555,0.023035,0.099583,0.023072,0.099577,0.30362,-0.027931,-0.13002,-0.10452,-0.079002,-0.028023,0.12507,0.074081,-0.10451,-0.053458,-0.053464,-0.1045,0.02301,0.15056,0.048555,-0.0535,0.099534,0.023035,-0.12997,-0.181,-0.43604,0.074093,0.78826,-0.10452,-0.15555,-0.002516,-0.002479,-0.078972,0.15056,0.099588,-0.35954,-0.25751,0.074057,0.12507,-0.10449,-0.079021,0.27808,0.32917,-0.10446,-0.18103,-0.181,-0.027962,0.22707,0.35461,-0.027974,-0.0535,0.15057,-0.053495,-0.28304,-0.078984,-0.027895,-0.078972,-0.053506,0.023035,0.023023,0.17611,0.099534,0.023023,0.074093,-0.25754,-0.12998,0.30364,-0.079033,-0.10448,-0.079008,-0.079026,0.25265,-0.027998,0.099552,-0.12998,-0.078972,-0.053439,0.12507,0.15059,-0.12998,-0.18103,-0.027998,-0.027974,0.15056,-0.10447,-0.053451,-0.00243,0.048494,0.15058,-0.027993,-0.2065,0.15056,-0.053476,-0.4871,0.099564,0.66077,0.32912,-0.35958,-0.18105,-0.33404,-0.053495,-0.181,0.099546,-0.02792,0.12507,0.023059,0.12504,0.12507,0.09954,-0.027974,0.023029,0.048549,-0.10449,0.04858,-0.18098,-0.12995,-0.33404,0.27808,-0.027974,-0.002479,0.17606,-0.10454,-0.079008,-0.078996,0.04858,0.048616,0.023059,0.074038,-0.15553,-0.10448,0.023017,0.048525,-0.027987,-0.027944,0.099583,0.048592,0.30364,-0.15554,-0.15551,-0.053513,-0.002503,0.048518,0.2016,-0.15546,-0.18099,-0.10444,-0.078941,0.25257,0.048512,0.074033,-0.00251,-0.027987,-0.027987,0.099577,-0.053446,0.099583,-0.18096,-0.15553,0.35461,0.048525,0.074026,-0.079002,-0.078966,-0.15546,0.22711,-0.10447,-0.079008,0.20155,0.023017,0.15055,-0.078977,-0.10451,0.074081,-0.027956,0.12512,-0.027938,-0.10452,-0.053519,0.20155,0.12509,-0.079002,-0.002461,-0.07899,0.023047,-0.078977,-0.12998,-0.053451,0.099521,-0.078984,0.12507,0.074038,0.099559,0.30363,-0.05347,-0.18104,-0.078947,-0.078959,-0.002461,-0.07899,-0.07899,0.12502,-0.079008,-0.053488,0.32915,-0.02795,-0.12996,-0.053427,0.17607,0.023017,-0.15554,-0.079021,-0.079026,0.048536,-0.002448,-0.002461,-0.053415,-0.053402,0.12504,-0.078984,0.02301,0.023041,-0.053488,-0.027956,-0.053495,0.12507,-0.15545,-0.053451,0.048543,0.048512,-0.027987,-0.002521,0.27809,-0.18101,0.074051,0.023072,-0.078947,-0.25748,0.074026,-0.027974,0.0485,-0.027962,0.023005,-0.10449,0.023072,0.40573,-0.12999,-0.027974,-0.053519,-0.02798,-0.027993,-0.078996,-0.053476,0.048543,-0.027944,0.048555,0.1251,-0.027993,-0.07899,0.15055,-0.05347,0.074026,-0.053476,-0.027969,-0.00243,-0.027956,-0.15547,-0.05347,-0.002485,-0.028005,0.048543,0.12504,0.12505,-0.002443,-0.027969,0.048573,-0.053421,-0.25753,0.023023,0.50764,0.22708,-0.002485,-0.23205,-0.25749,0.023072,-0.078947,-0.12998,-0.002443,0.02301,0.074038,-0.1555,0.15053,0.099552,0.35462,-0.23201,-0.12998,-0.053451,-0.078966,0.25262,-0.078966,-0.078996,-0.027993,-0.028023,-0.002479,-0.13,-0.053458,-0.053439,-0.027944,0.2271,0.023017,-0.027962,0.074026,0.023035,0.099583,-0.078996,-0.002436,0.048561,-0.12999,0.074038,0.20156,-0.027998,-0.027974,0.023023,-0.15548,-0.10447,-0.053464,-0.283,0.048536,0.35462,-0.027974,0.15057,0.074026,-0.079008,-0.027956,-0.078953,0.048531,0.04858,-0.18102,0.074013,0.25259,-0.13,0.12505,-0.027962,-0.078959,-0.053482,0.023059,-0.078947,-0.027969,0.15056,-0.078984,0.17606,0.023023,-0.027987,-0.002472,-0.12998,0.12508,-0.10446,-0.10447,0.074038,0.17604,0.023035,0.048543,-0.053506,-0.078984,-0.12998,0.074057,-0.02795,-0.078947,-0.10451,-0.027969,0.09954,0.099528,0.099528,0.3291,-0.078996,-0.07899,-0.23199,-0.10444,0.15057,-0.1045,-0.002472,0.12505,-0.053488,-0.053488,0.023054,0.023072,0.099583,0.074062,-0.0535,0.048512,-0.053482,0.023017,-0.10452,0.099559,0.048536,0.048604,0.074124,-0.05347,0.023005,-0.002503,-0.00251,-0.053482,-0.027956,0.074057,0.048555,-0.053476,-0.10447,-0.18099,0.15054,0.20155,0.17609,-0.002497,0.074033,-0.078972,0.40567,-0.10445,-0.23198,-0.20653,-0.15553,0.048531,-0.002503,0.099546,0.048518,0.048518,0.15058,0.074075,-0.078941,-0.15545,-0.13001,0.048531,0.023047,0.074013,0.20156,-0.15549,-0.002479,0.048555,-0.10445,0.023047,-0.078984,-0.1045,0.12507,0.023054,0.074013,0.074044,0.074051,-0.002472,-0.053451,-0.28303,0.023023,-0.027962,-0.053464,0.099546,-0.07899,0.048536,0.074062,0.048561,-0.078959,0.20162,-0.20654,0.35461,-0.028005,-0.23204,-0.25753,0.023047,-0.12998,0.074062,-0.078959,-0.027956,0.17604,0.09957,-0.027969,-0.002503,0.12507,-0.002461,0.023047,-0.10445,-0.283,0.023047,0.023035,-0.002485,0.023047,-0.079002,0.15052,-0.078959,-0.10449,0.099577,-0.18095,-0.05347,0.22711,-0.13002,0.12501,0.22705,0.023023,-0.1045,0.048598,-0.053421,-0.15546,-0.15548,-0.079026,-0.053519,0.099546,0.22709,0.048543,0.048536,0.099588,-0.25752,-0.078977,0.20163,0.074013,0.048531,-0.1045,-0.002472,-0.02798,0.12504,0.17609,0.048543,0.074081,-0.12996,0.12505,-0.02798,-0.027998,0.15056,0.074026,0.048549,-0.078977,-0.078984,-0.02792,-0.15549,-0.002479,-0.078996,0.023029,0.20159,0.15054,-0.10449,0.048561,-0.10449,-0.053446,-0.10449,-0.0535,-0.028005,0.074062,0.12507,0.074038,0.048536,-0.027969,-0.05347,-0.078941,-0.13,0.074026,-0.10451,0.22707,0.35464,-0.0535,-0.078996,-0.053458,-0.053464,-0.002454,-0.053476,-0.002497,-0.02798,-0.15549,0.22707,0.27809,-0.027969,0.074038,-0.12997,-0.15545,-0.10448,0.099546,-0.12999,-0.1045,0.074044,-0.05347,0.099503,0.32913,-0.18099,-0.05347,-0.027956,0.02301,-0.028005,0.048549,-0.078996,-0.027993,-0.002436,0.048573,0.15062,-0.18097,-0.10449,0.048543,-0.10449,0.048518,0.022992,0.048536,0.023035,-0.002448,0.074075,-0.053458,-0.053464,-0.10452,0.15055,0.17609,-0.002491,0.074069,-0.18101,-0.078966,-0.12998,-0.10444,-0.078972,0.17604,0.048531,-0.078984,0.023029,0.099546,0.12507,0.074051,-0.027944,-0.12999,-0.078947,0.20156,-0.10449,-0.027987,-0.13002,0.099559,-0.002467,-0.10445,-0.05347,-0.002418,0.023035,0.099552,0.048512,0.15058,0.099521,-0.02798,-0.13,-0.053488,-0.002436,0.17611,-0.078953,0.074013,-0.053476,-0.079002,-0.07899,-0.027969,0.074062,-0.027944,0.048531,0.023065,0.30365,0.074013,-0.078996,-0.027987,0.099534,0.023041,0.048536,-0.12998,-0.23203,-0.10445,-0.078977,0.15057,0.22708,-0.053495,-0.053482,-0.13,0.023035,-0.002443,0.048561,-0.053446,0.074051,-0.053506,-0.02798,-0.027969,0.023041,-0.002472,0.048561,0.099577,-0.12999,-0.02792,-0.23201,-0.00251,0.12505,-0.002467,0.023023,0.12504,-0.027969,-0.12998,-0.02795,-0.18097,-0.053482,0.15054,0.048573,0.15059,-0.00251,-0.10453,-0.078972,0.12507,-0.18101,-0.10447,0.099588,0.07402,0.12504,-0.002448,0.09954,0.074051,-0.18099,-0.027987,-0.002461,-0.12998,-0.05347,0.22707,0.099534,0.074026,0.048549,0.099521,0.074069,0.04858,0.12509,-0.053451,-0.07899,-0.079021,-0.25753,-0.002485,-0.002479,0.22709,0.12507,-0.078972,-0.078959,-0.027969,-0.10449,0.048487,0.048494,0.048561,0.074038,0.15058,0.099564,-0.027974,-0.027969,-0.23197,-0.002467,0.048536,0.15054,0.048512,-0.027987,-0.053482,-0.027974,-0.053446,0.074062,0.0741,-0.12996,-0.002503,0.023023,-0.10448,0.074026,0.15055,-0.002454,-0.027974,-0.00243,-0.12997,-0.28306,-0.10452,0.73723,0.074033,-0.15551,-0.20652,-0.053488,0.048543,-0.078947,-0.20648,0.023035,0.17609,-0.0535,-0.002485,0.12502,0.099546,0.074069,-0.10447,0.074062,-0.02795,-0.18096,-0.053506,0.023023,0.27807,0.074081,-0.002497,-0.002472,-0.13001,-0.002443,-0.10445,0.074051,0.099521,0.023017,-0.10447,-0.002472,-0.18103,0.04858,0.20162,0.074081,0.12507,-0.053427,-0.13004,-0.028011,-0.028005,-0.13002,-0.10449,0.074051,0.048585,-0.002423,0.099583,-0.027962,0.0485,-0.053488,0.023029,-0.079021,0.074033,-0.002461,0.099595,-0.12998,-0.12998,0.25266,-0.027993,0.048512,-0.1045,-0.00251,-0.028005,0.048555,0.048549,0.1251,-0.00243,-0.15551,-0.10451,-0.05347,-0.002503,0.074044,-0.027987,0.048543,0.074081,0.048573,-0.053458,-0.15547,0.048518,0.022998,-0.078984,0.048525,-0.13002,-0.027938,-0.12997,0.074075,-0.15543,0.099577,0.17601,-0.13002,-0.078984,-0.1045,-0.02798,-0.15549,0.023047,-0.002454,0.2016,0.12508,-0.1045,0.074026,-0.053482,0.048518,0.20157,-0.027938,-0.053488,-0.078966,-0.10447,-0.053476,0.22708,-0.053506,0.099559,0.023017,0.048506,-0.078977,0.04858,-0.07899,-0.053427,0.30365,-0.053525,-0.079008,-0.05347,0.023035,-0.20649,0.048536,0.074093,-0.13002,-0.10448,-0.053464,-0.053519,0.22706,0.22707,0.17609,0.023017,-0.002472,-0.10447,-0.181,-0.027931,-0.05347,-0.10452,0.099546,0.023065,0.17609,0.074013,-0.15551,-0.027962,-0.027993,-0.078947,-0.10447,0.074013,-0.027993,0.048567,0.2526,0.074026,-0.02798,-0.2065,0.074069,-0.10447,-0.12999,0.099559,0.074038,0.074051,-0.02798,-0.15551,-0.13001,-0.002467,0.023084,0.023059,-0.002454,0.023017,-0.13002,0.023029,0.38014,-0.18102,0.023054,0.023054,-0.25751,0.15058,0.023059,0.023047,-0.002485,0.25259,-0.027993,-0.079008,-0.002491,-0.05347,-0.078972,-0.002443,0.1506,0.048549,0.074051,0.1761,0.023041,0.048518,-0.10449,-0.15553,0.22709,-0.28301,-0.181,0.048536,0.023035,0.40564,0.099534,-0.053476,0.023029,-0.12998,0.25262,-0.053439,-0.15549,0.074026,-0.078984,0.15055,0.074044,0.12507,-0.078984,-0.12998,0.099559,-0.15547,-0.002467,0.17604,0.02301,-0.18103,0.17604,-0.002443,-0.02795,0.023047,-0.12997,-0.053439,-0.12995,-0.13002,-0.002479,-0.28306,0.023035,0.15058,0.12507,-0.027962,-0.30853,0.074062,-0.12996,0.12501,0.099521,-0.35954,0.20156,0.074044,-0.002436,0.023047,-0.078966,-0.18098,-0.02798,0.023029,0.20157,-0.02798,-0.13001,-0.002516,0.17609,-0.10446,-0.078984,-0.027925,-0.002443,0.15056,0.048536,-0.15553,-0.18105,-0.13001,0.048585,0.023059,0.099608,-0.078935,-0.002467,0.048525,-0.053506,0.023017,0.15056,0.048525,-0.053495,-0.053446,-0.053433,0.074062,-0.15548,-0.027987,0.25257,0.20159,0.023029,-0.028018,-0.027969,-0.002454,-0.002467,-0.078953,-0.15549,0.15055,0.099521,-0.1045,0.048561,0.09957,-0.002461,0.023041,-0.002443,-0.15546,-0.078984,-0.027998,-0.027998,0.023041,-0.053488,0.15054,0.32913,-0.027938,-0.181,-0.002461,-0.078966,-0.10451,0.074038,0.099583,0.023041,-0.028023,-0.002479,0.048549,-0.10449,-0.053421,-0.078953,0.12505,0.048561,0.048531,0.15053,-0.079008,0.023035,-0.078953,0.20156,-0.12996,-0.18101,-0.027962,-0.027993,0.15059,-0.027987,0.25259,0.12508,-0.10451,0.048573,-0.12995,-0.053476,-0.13001,0.074026,-0.002461,0.023029,-0.05347,0.048536,0.12506,-0.053464,0.074075,-0.053439,0.12502,-0.027993,-0.078996,0.12508,-0.053446,0.099546,-0.002436,0.12507,-0.053446,-0.18101,-0.0535,-0.053495,0.02301,0.15054,0.35462,-0.12998,-0.1555,-0.027938,-0.23196,-0.2065,0.023023,-0.12999,-0.002472,0.17604,-0.027956,0.07402,-0.10447,0.15056,-0.002443,0.023047,0.023017,0.023029,0.048549,0.048561,-0.18105,0.17611,0.12507,-0.053451,-0.15548,0.023059,-0.02798,-0.028005,0.02301,0.15054,-0.027987,-0.10452,0.12507,-0.12994,-0.027913,-0.18095,0.074026,0.074038,0.099559,0.074038,0.048549,-0.002479,0.074044,-0.078977,-0.027962,-0.12997,-0.002497,-0.002454,-0.027987,0.048536,0.023041,0.048555,-0.027925,-0.078984,0.074087,0.048536,-0.078984,0.023023,-0.053476,0.048536,-0.028023,0.12507,0.38016,-0.078996,-0.15543,-0.18099,-0.002472,0.27809,-0.079021,-0.10451,-0.053506,-0.02798,0.023059,-0.027962,-0.002412,-0.18098,-0.053519,0.048536,0.048536,0.27808,-0.027969,0.17604,0.074051,-0.181,-0.20648,0.17613,0.048525,-0.15551,-0.002479,-0.002491,-0.00251,-0.078966,-0.027969,-0.027938,0.1251,-0.15547,0.12504,0.074044,0.048561,0.12504,-0.028011,0.023023,-0.002485,-0.078984,-0.053427,-0.027969,0.2016,-0.027974,-0.2065,0.048536,-0.002461,0.074038,-0.18102,-0.002454,0.22715,-0.027962,-0.002485,0.12508,-0.079014,0.022998,-0.10449,0.074038,0.048543,-0.078972,-0.12993,-0.078959,0.22707,0.048555,-0.079008,-0.1555,-0.15553,0.30361,0.20161,-0.002472,-0.12995,-0.18098,0.0485,0.048531,-0.053495,-0.002503,0.074038,-0.078972,-0.078977,0.04858,-0.078935,-0.10449,0.074038,0.023023,0.15055,0.27809,0.022992,-0.15551,-0.027944,-0.10447,-0.18097,0.048573,-0.027987,0.048525,0.074051,0.074033,0.09954,0.09957,-0.12999,0.023035,-0.02795,-0.181,0.12505,0.023041,0.15057,-0.028005,-0.027987,0.12507,0.074062,-0.053427,-0.12993,-0.078972,-0.053495,-0.10452,0.12503,-0.02798,-0.053513,-0.05347,-0.078972,-0.078966,0.074069,-0.027944,-0.053506,-0.002485,-0.027956,-0.002461,0.2526,-0.002461,-0.1555,-0.027969,0.048604,-0.12997,0.02301,-0.10452,-0.079033,0.074038,-0.002479,0.023054,-0.027944,-0.053446,-0.053446,-0.053446,0.17603,0.074051,0.048549,0.12505,0.048536,0.048536,0.048561,0.074087,0.048585,-0.027956,-0.13004,-0.079033,-0.12999,0.048525,0.048518,0.048555,-0.078972,0.099564,0.074106,-0.078959,0.07402,0.07402,0.099528,-0.078977,-0.053488,0.048573,0.09957,0.023023,-0.18097,-0.18098,0.074062,0.074038,-0.13001,-0.053488,-0.028011,-0.027969,0.048561,0.074075,-0.002412,-0.002467,0.074044,-0.07899,0.074038,-0.002479,-0.002472,0.048585,-0.002472,-0.027962,-0.078947,-0.13,-0.13001,-0.0535,0.43114,0.048512,0.20157,0.048543,-0.15551,-0.20653,-0.12993,-0.18098,0.2781,0.099559,-0.002516,0.074033,0.074033,0.12503,-0.002448,-0.078972,-0.002418,-0.15547,0.20158,0.023023,-0.15548,-0.13001,0.074038,0.074069,-0.027956,-0.002448,0.023084,-0.053482,0.07402,-0.1045,-0.002491,-0.002479,-0.027962,-0.002467,0.074062,-0.027944,-0.12998,-0.078953,0.20155,0.048512,-0.078977,-0.23202,0.074038,0.17607,0.15057,0.048585,-0.12998,-0.25753,0.20159,0.099534,-0.079008,-0.07899,-0.02798,0.2271,0.1506,-0.13001,-0.18095,-0.1045,-0.079008,-0.028011,0.2526,-0.002479,0.048525,-0.15549,-0.027938,-0.12996,-0.078935,-0.10445,0.023035,0.023023,0.12503,0.09954,0.15054,0.17606,0.023041,-0.053476,-0.15547,-0.10447,-0.078972,-0.079002,-0.027962,-0.027974,0.12504,-0.027956,0.099552,0.048567,-0.027969,-0.027938,0.099552,0.099559,-0.13003,0.048536,0.17603,0.023047,-0.20651,-0.02792,-0.02792,-0.10446,-0.002491,-0.1045,-0.23202,0.48214,0.25259,0.38014,-0.20653,-0.28303,-0.20651,0.048549,0.023029,-0.027987,-0.027974,0.023035,0.099564,0.023065,0.023065,-0.002448,-0.18099,-0.10447,0.12504,-0.02798,0.048543,0.074013,0.12502,0.023035,0.048543,-0.10444,-0.15546,0.074087,-0.002472,-0.20653,0.023029,0.074038,-0.13,-0.053495,0.074051,0.12509,-0.10444,-0.002454,0.15056,0.023035,-0.079021,-0.028018,0.074062,0.048567,-0.28302,-0.15547,0.099619,0.074069,-0.10451,0.023035,0.023017,0.02301,-0.053488,-0.002443,-0.053495,-0.10449,0.30368,-0.027969,-0.0535,-0.002479,-0.1555,-0.1045,0.17606,0.074044,-0.002461,-0.027962,-0.15545,-0.18097,0.023035,-0.18102,-0.053482,0.099521,-0.027974,-0.05347,0.12505,0.20159,-0.12999,-0.002443,-0.027987,-0.1045,0.15055,0.25259,-0.13,-0.10451,-0.027944,-0.12996,0.048567,0.023059,0.023029,-0.028005,0.099588,-0.02798,-0.027998,0.099552,-0.078947,0.074069,-0.25751,0.17612,-0.15553,-0.002485,-0.13002,-0.20654,-0.1045,-0.05347,-0.027956,0.099577,0.099595,0.074087,0.4056,-0.002503,-0.05347,-0.079002,0.02301,-0.027962,-0.053433,0.099577,0.023047,-0.053458,-0.079002,-0.053513,-0.053476,-0.181,-0.10452,0.17611,0.12509,0.2781,0.023047,-0.25749,-0.0535,0.15054,0.023035,-0.028011,0.12503,0.09957,0.023084,0.023059
