-0.12999,-0.002497,0.32907,0.22706,-0.027969,-0.002454,-0.027956,-0.12998,-0.25751,-0.053488,0.25256,0.32907,0.074038,-0.181,-0.027962,0.023054,-0.12998,-0.23197,-0.18096,-0.002461,-0.002472,-0.027987,0.17603,0.25254,0.35455,0.099546,0.023072,-0.25746,-0.41054,-0.027956,0.074057,-0.07899,0.02301,0.099521,0.17609,0.023054,-0.18102,0.27811,-0.10444,-0.12999,-0.053464,-0.18099,-0.10451,0.12505,0.099552,-0.07899,0.099564,-0.10447,-0.078959,-0.002467,-0.1555,0.15055,0.099534,-0.053506,0.25256,0.099564,-0.15546,-0.23197,-0.12995,-0.35951,-0.1045,0.15054,0.099534,0.25258,0.27807,0.30358,0.023041,-0.002461,-0.12995,-0.181,-0.002472,-0.053464,-0.002472,0.09954,0.074038,-0.053482,0.099546,0.048561,-0.20649,0.023035,-0.053482,-0.15551,0.20155,0.32908,-0.078977,-0.078977,-0.10446,-0.283,-0.027962,0.074051,0.15054,0.15056,-0.05347,0.074038,-0.053458,-0.30851,-0.027962,-0.002467,-0.078966,-0.02798,0.02301,-0.027993,0.07402,0.55859,0.35458,0.048598,-0.078928,-0.28297,-0.25746,-0.078966,-0.15548,-0.1045,0.15052,0.17603,0.022998,0.17606,0.074057,-0.002461,0.09957,-0.00243,-0.18097,-0.30851,-0.20652,0.048518,0.023017,0.048518,0.25254,0.32907,0.17612,-0.18095,-0.12997,-0.12998,-0.15547,-0.15549,-0.053488,0.25255,0.09954,-0.078972,-0.10447,-0.05347,-0.02798,0.023035,0.12502,0.20155,0.22706,0.099559,0.023059,-0.20647,-0.18097,-0.027956,0.023054,0.048549,-0.20652,-0.13001,-0.053482,0.12504,0.22705,0.25254,-0.027956,-0.18092,-0.25748,-0.18098,-0.027969,-0.027969,0.048518,0.023035,-0.027974,-0.10449,-0.027962,-0.002491,0.43108,0.22708,-0.078984,-0.12999,-0.10447,0.023047,-0.053458,-0.05347,0.074044,-0.053464,-0.30851,-0.334,0.17605,0.25257,0.17605,0.12504,0.12505,0.074075,-0.053433,-0.12999,0.022998,0.074026,-0.15548,-0.18098,-0.053476,0.048543,-0.10444,0.023054,-0.053482,0.40557,0.17606,-0.12998,-0.30848,0.30356,-0.05347,-0.18097,0.023054,-0.053464,0.20156,0.4056,-0.053476,-0.002503,0.12502,-0.02798,-0.02798,0.023035,-0.10445,-0.15543,-0.3085,-0.13,-0.027993,-0.02798,0.17607,0.17607,0.074057,0.048549,-0.027962,0.12507,0.023065,-0.12999,-0.002485,0.023023,-0.002485,-0.002479,0.048531,-0.02798,0.048555,0.074062,-0.002436,-0.078966,-0.10447,-0.10449,0.048531,0.12505,-0.078984,-0.053476,-0.027944,0.099577,-0.027993,-0.053482,0.17604,-0.10452,0.074033,0.074051,0.048536,0.023065,-0.30846,-0.053433,-0.20647,-0.078977,0.12502,-0.053476,0.17603,0.073989,0.32907,0.27808,0.25262,-0.10444,-0.46152,-0.436,-0.18098,0.048555,-0.027993,0.22703,0.15052,0.15054,0.15056,-0.053451,0.099564,-0.18097,-0.027987,-0.283,-0.02798,0.15059,0.53312,-0.38503,-0.10447,0.40557,0.17609,-0.38496,-0.71653,0.074044,0.227,0.50756,0.17604,0.09951,0.27807,0.1251,-0.23196,-0.30849,-0.12998,-0.12996,-0.15548,-0.13,0.074062,-0.02795,0.023035,0.20156,-0.18099,0.048512,0.12504,0.023023,0.22705,0.4566,0.27808,-0.58904,-0.35949,-0.71651,-0.13001,0.20154,0.27805,0.20155,0.38006,0.023047,0.17608,0.099552,-0.12997,-0.69102,-0.64003,0.17604,0.099534,0.074008,0.76258,-0.027987,-0.30855,0.074033,0.91563,-0.15549,-0.58898,-1.099,0.63513,0.12501,0.35456,0.20151,0.30358,-0.002467,-0.10447,0.04858,-0.15548,-0.56352,-0.61452,-0.027969,-0.181,0.73715,0.48203,0.7881,0.58414,-0.76753,-0.97158,0.17607,0.66061,-0.10443,-0.35947,-0.028054,0.3035,-0.12999,-0.053464,-0.078928,0.20156,-0.027956,-0.5125,0.55862,0.45659,-0.66554,-0.66546,-0.64001,0.81356,0.94107,-0.027969,0.3801,-0.334,-1.1245,0.15053,0.86454,1.0431,-0.7675,-1.1756,0.55854,0.45666,-0.41046,-1.3795,0.50768,0.76258,0.431,0.45653,-0.25753,-1.7877,0.17609,0.38002,0.6605,0.99231,-0.84405,-0.66551,0.32924,-0.12985,-0.10452,0.38008,-0.002619,-0.46158,-1.3286,-0.079039,0.38003,0.99213,0.12512,0.40565,-2.2212,0.89021,1.6807,1.0941,-0.97156,-2.4762,0.12504,0.66043,2.0376,0.73711,-2.1191,-0.10438,1.6042,0.68617,-0.66557,-1.0481,0.073984,0.48206,-0.69098,-1.5326,1.0942,1.4256,-1.7621,-0.92059,1.1197,-0.3849,0.78805,0.099595,1.1195,0.2525,-2.0171,-0.58889,1.4513,0.12494,0.71138,-1.0227,0.023035,-1.048,0.15069,0.12509,0.73702,2.1396,0.38006,-3.0117,-0.84391,-0.35939,1.8593,-1.4306,-0.15557,0.94104,2.1907,0.25256,-0.63999,-0.3594,-0.94612,0.68608,0.099528,0.50748,-0.92053,-1.15,-0.946,1.0942,0.8646,-0.46156,0.30356,1.2727,-0.028029,1.8337,1.0176,-0.81857,-1.609,-2.119,0.45648,-1.0227,0.60962,-0.53783,-0.46155,1.2726,1.6806,0.25246,-0.002436,0.71175,-1.5836,-0.181,1.1178,0.94105,-2.0683,-3.0372,0.40571,2.3438,-0.89485,-3.0116,-0.84402,3.6952,1.7825,0.60951,-1.0991,0.43106,-0.38498,-0.35948,0.94117,0.48213,-1.252,-1.2776,0.50762,-1.2776,1.1706,0.53308,-0.436,-0.41047,2.0121,0.83904,-2.7821,-1.6855,0.17604,0.48202,1.298,1.5023,1.0176,0.3291,-0.10435,0.40557,-0.079039,-0.97153,0.074124,-0.2321,-0.66562,-1.3285,-1.099,0.76248,-1.507,1.6806,1.8083,0.048683,0.43112,0.48206,0.25252,0.099485,2.6751,-0.46154,-4.1848,-1.1499,1.6296,-0.41054,-1.6856,0.63501,0.40543,0.55852,0.1761,0.45672,0.83914,-0.15543,0.38003,0.099546,-0.41041,-0.41049,0.40558,0.76245,-0.1301,0.4311,-0.028005,0.023108,-0.053451,-2.9097,-3.3687,1.9612,2.9303,1.298,-0.84388,-0.99709,0.83909,2.3437,1.2471,-2.4506,-3.4196,-0.20644,2.6242,1.8591,-1.3542,0.048512,0.099497,0.2015,-0.078941,0.15069,0.1506,0.53313,-1.3286,-0.99716,0.25256,0.074069,0.48213,1.1196,1.2472,0.68604,-2.9097,-1.4814,-0.28304,2.2926,1.4512,-1.4562,1.5787,-0.76759,-2.8842,-2.1445,0.25269,2.4713,2.3181,1.6551,0.7626,-0.15546,-1.9406,0.32909,0.099632,-3.7512,-4.2359,1.1962,1.3235,0.073917,1.7828,1.9102,0.73706,-1.3541,-0.002423,0.27812,-0.15554,-0.079039,0.45666,0.09954,-0.12991,-0.38498,1.0176,0.32907,-1.6856,-1.099,0.074081,-0.13008,-1.3796,0.78813,-0.23187,1.6041,1.5532,1.6041,-0.02795,0.43105,0.78802,-1.1754,-1.915,-1.0735,-0.74209,-0.86963,0.63505,3.1087,0.40556,-4.0318,-0.71643,1.0432,1.6298,0.73691,1.0177,0.074026,-0.53811,-0.20652,0.43113,-1.0736,-1.1245,-0.99699,0.86452,1.1451,1.145,1.5021,-2.8075,-5.0007,-0.20654,1.8846,3.2617,0.53324,-1.5836,1.6298,0.66051,0.15054,-1.354,-2.17,0.43096,2.4202,-0.61454,-1.7112,0.30355,1.2983,0.81354,-0.38508,-2.2467,-0.43604,0.6097,0.86486,0.48215,-0.53804,-0.64011,0.5584,0.20165,0.25244,1.2472,-1.5581,-2.8331,1.2472,0.86467,0.58411,0.15035,1.4003,0.73708,-0.48699,-1.6347,1.1707,-0.20643,-1.9916,-0.94617,-2.2722,-0.79289,1.8338,1.7572,1.6551,0.53295,0.50749,1.2728,-0.56346,-1.099,0.22712,-2.4508,-1.0992,1.7573,-0.61453,-0.13,0.76264,0.78812,0.40566,-0.997,-0.13007,0.60947,-1.609,-0.51257,0.12513,1.1452,1.3746,-0.86958,0.048585,-0.41055,-1.5581,-0.23205,2.5734,0.94103,-1.2266,-1.966,-0.078966,2.0121,0.02301,0.99223,-0.079045,-0.46145,-1.3541,-0.94615,-1.0735,0.50765,1.1451,0.83909,-0.76752,-0.30851,0.60949,0.38001,-0.41055,0.27817,0.55864,0.40546,-0.69104,0.30361,1.1451,0.40554,-3.2665,-2.1446,1.451,0.68604,-0.15567,0.43099,0.8904,-1.7619,1.2726,1.9613,1.5021,-1.0224,-0.33398,-0.181,-0.97158,-0.76759,0.25251,0.40559,0.099497,-0.30851,0.099613,0.25257,-0.027944,0.53304,-0.30841,-0.5891,0.73704,0.89014,-0.92056,0.32923,-1.8385,1.2982,0.48204,0.48209,0.27786,-0.74208,-0.28304,0.2271,-0.74203,-0.15542,0.15061,1.4511,-0.84412,0.329,0.38006,0.17622,-1.6346,0.78818,-0.027993,-0.74207,0.50763,-0.18106,-0.41049,0.17604,1.4257,-1.1755,-0.10457,-0.28319,-0.66572,-0.002418,1.3493,0.89027,-0.078923,0.55872,-1.0736,-1.3796,1.0177,-0.028042,-0.79299,0.20158,1.2471,-0.64015,0.2526,0.32909,-0.58898,0.38004,0.32914,0.86464,1.9102,0.40551,-2.2977,-2.1956,-3.7768,0.81366,2.0632,2.3437,0.3291,0.81376,0.9411,-0.48702,-3.0882,-0.35961,-0.028011,0.27815,2.0377,1.2981,-1.405,-2.9097,-0.35965,0.99214,-0.002467,-0.13003,0.55862,0.27803,0.22704,-0.10452,-0.61446,-0.23188,0.099473,0.074062,0.35453,-0.56364,0.22715,0.60956,0.83913,-0.283,-3.0118,-0.51246,-0.00235,0.76253,2.1397,0.86464,0.17601,-0.078947,-0.48699,0.30353,-0.86967,-0.61443,0.63526,0.3036,-0.13012,-1.0225,0.023023,1.4257,0.12501,-0.30861,-0.23192,0.17607,0.27812,0.2015,-0.64007,-1.0736,-0.30845,0.17612,0.66056,0.25243,-1.4051,0.58405,0.53311,0.20169,0.68613,-1.048,-0.99703,0.81348,1.1961,-0.4615,0.35453,1.5787,-0.99685,-3.8532,-0.84403,2.0632,1.9356,0.99218,1.6551,-0.92065,-3.3944,-1.3797,1.4002,0.99245,0.023176,-0.25753,0.099521,-0.15554,0.12504,0.073904,0.50751,-0.23193,0.73712,0.66057,-0.94612,-2.6547,-0.38478,1.2216,1.1962,1.5021,-1.6603,-0.86944,0.023029,-0.33401,0.30359,0.99215,1.2726,1.6806,-0.027956,-0.61452,-1.1246,-0.43582,-1.8897,-0.053525,0.4056,-0.1301,-2.0681,-0.10448,1.2217,1.1708,-0.9206,1.4001,-0.43596,-0.23215,1.6042,0.48213,-0.20644,0.099412,-0.71658,-0.53801,0.27814,0.38018,-1.1246,0.22711,0.15058,-0.53794,1.5786,1.5276,-2.9097,-1.1757,-0.25748,-1.15,0.50755,1.2472,2.4458,1.2726,-0.56354,0.50752,0.45673,-0.74198,-1.4562,-0.84419,0.30346,-0.89488,-0.28295,-0.25728,-0.28302,0.073861,-0.12998,0.55866,1.1706,-0.10446,-0.43592,0.27801,0.25244,-1.4817,-0.15545,1.3492,0.86463,0.45661,-0.89494,-1.4816,-0.33404,0.20156,-0.05347,0.074062,1.2981,1.2727,0.12502,-0.38494,-0.13004,-0.94601,-0.66561,0.099626,-0.51262,-0.6145,0.73705,1.0431,-0.25756,0.4821,-0.58895,0.60969,0.9922,-0.76765,-0.002387,0.68608,0.45647,-2.7822,-0.97155,1.7828,-0.487,-0.86964,1.2981,1.1961,-0.76746,-0.81858,-0.64008,0.63507,0.60968,1.7062,1.6042,-0.20648,-3.1646,-4.6948,1.7826,1.6551,-0.99716,0.30355,2.3437,1.7571,-0.58912,-2.272,-0.20641,0.3545,1.2216,-1.354,-2.5271,0.66072,0.17605,0.55847,0.099515,-0.56353,0.66058,0.45659,0.89004,0.55866,-0.23193,0.45651,0.43118,0.022992,-0.51255,-1.9406,1.0685,1.9357,-3.2922,-4.3888,-1.0991,0.83912,2.4203,3.7973,3.0068,0.81363,-3.7004,-1.0481,0.58414,1.3746,-0.4871,-1.762,0.43113,-0.56344,-2.2467,0.58407,0.048438,0.43099,0.073904,0.48214,0.048518,-0.078984,0.27807,0.4056,0.58422,-0.10444,-0.61445,-0.10434,0.099436,1.655,0.176,-3.5217,0.7882,0.76264,1.0175,-0.74211,-1.7621,0.40571,2.0122,-0.23204,0.20149,0.43113,0.17607,-1.456,0.60963,0.71156,0.20147,-0.02784,0.074051,0.25249,0.58394,-1.4051,-1.6345,0.074038,0.40554,0.1507,0.27814,0.30355,0.35445,-0.027974,0.15048,-0.25755,0.37996,0.83922,-2.7312,-1.1245,0.78808,2.7772,0.074038,-1.2011,-0.28305,-0.20641,0.3546,0.20155,-0.12993,0.60963,-1.2266,-0.28294,0.99212,0.27791,0.60952,-0.23208,-1.1244,-1.2264,0.40552,-0.61438,1.1961,0.30338,1.2471,0.5841,-0.97158,-0.4104,-0.38496,0.73714,0.38008,-0.86959,0.20153,0.4056,-0.25738,-0.18094,0.20147,-0.79309,-0.002461,0.12514,0.58402,0.15045,-0.38511,0.482,0.35459,-0.41046,-1.4305,1.4003,-0.48687,-1.1501,1.1706,0.73716,-0.3595,-0.13006,0.43105,-1.2266,0.25261,-0.33404,-0.23194,0.43118,0.02301,-0.41064,0.2525,-0.027969,0.71169,-0.027931,0.1506,-0.18105,-0.6145,0.50762,-0.69105,-0.30846,0.15053,0.55854,0.94117,0.20154,-0.64001,0.8136,-1.2266,-0.79307,0.63511,-0.53799,-0.48701,0.78813,1.0686,0.60968,0.25252,-0.41052,-0.15548,-0.64001,-0.58908,0.45658,-0.078984,-0.53798,-0.15538,-0.89507,0.048616,1.3236,0.2524,1.2217,0.048525,0.58407,0.02301,-1.762,-1.2265,0.3546,-0.079045,-0.13,0.43106,-0.078972,0.50758,0.55858,0.27805,-0.84409,-0.027925,1.0431,0.60957,-1.7366,-1.303,0.27805,0.86471,0.63507,0.60953,-0.079063,0.35468,0.12495,-0.74213,-0.53792,-0.078868,0.55862,-0.94605,-0.58899,-0.23195,0.30353,1.0941,0.48198,0.68608,-1.6091,-1.3795,0.86454,0.66067,0.96655,0.6861,-0.15546,-0.71656,-0.078941,-0.74206,-0.48699,0.048604,-0.58901,0.86463,0.94107,-0.946,-1.2776,0.48194,0.5585,0.099564,-0.51248,-0.20657,0.86456,1.7062,-1.507,-1.099,0.60966,0.048487,-0.10461,1.1196,-0.33402,-0.56345,-0.002448,0.22707,-0.94607,0.48213,-0.078947,0.32907,-0.027944,-1.2267,-1.0482,-0.12998,0.35464,1.7063,1.6042,0.83916,-0.436,0.76261,-0.20651,-1.4306,-1.1755,-0.71656,0.35451,0.40561,0.15049,0.17604,1.1197,0.099521,-1.8641,-0.053464,0.32917,-0.56351,1.0176,0.073959,0.17601,0.8901,0.45657,0.022998,-0.30846,-0.66551,-0.35944,-0.20645,-0.078966,-0.18096,-0.078892,0.04858,-0.053451,-0.028114,-0.028005,-0.51255,0.71159,0.35461,0.55859,-0.35948,0.43103,1.2217,-1.2777,-2.6292,-0.18098,0.35454,0.38013,1.0431,1.2727,-0.18108,-0.51252,-0.20639,-0.46147,-0.05347,0.099497,0.32905,-0.79309,-0.48703,0.27811,-0.002472,-0.28295,0.86463,-0.12998,0.43101,-0.71653,-0.25752,0.023103,0.71161,1.3745,0.17595,-0.41036,-0.64007,0.71167,-0.35947,-0.53793,0.43107,-0.71655,-1.1756,-0.13011,0.78807,-0.053482,0.32913,1.1707,-0.002485,-0.76744,-1.5836,1.0176,0.66053,0.40552,0.2781,-0.84409,-0.51252,0.43106,0.45661,-0.23204,-0.56348,-0.002467,0.17607,0.023121,-1.0735,0.83903,-0.25754,-0.027969,-0.027998,-0.46151,-0.46143,0.07402,0.3035,0.73713,0.78802,-1.0224,-0.053415,1.0431,0.048396,-0.0535,-0.23188,-0.33408,-0.51243,-0.20647,-0.079057,-0.41047,-0.25746,0.45653,-0.15552,0.91565,-0.33404,-0.2319,0.66062,-0.25745,-1.0226,0.50765,1.0686,-0.4105,-0.84403,0.53307,0.25249,0.22716,-1.3796,-0.43607,0.66059,-0.12994,0.023041,0.8646,0.27795,-1.4307,0.30356,1.1963,-0.48697,-0.84411,-0.61447,-0.63995,1.6043,-0.48703,-1.0225,1.1706,0.55847,-0.81855,0.55861,0.15057,-0.30852,0.25258,-0.46154,-0.86952,-0.46153,0.074062,0.68607,0.25253,0.30356,-0.053495,-0.38499,0.91563,-1.0736,-1.4305,0.68605,0.73713,1.3747,-0.76755,-0.51246,0.58407,-0.48706,0.40549,-0.43612,-0.79304,-0.30839,0.9157,0.66055,-0.71659,-0.10447,0.40557,1.1196,-0.46144,-0.92051,0.48209,-0.4616,-0.53812,0.07402,0.048659,-0.13004,0.53314,-0.35952,0.30356,0.1761,-0.43594,-0.51255,0.09954,-0.18098,0.60958,0.68604,0.38014,-0.33391,-0.25756,-0.38502,0.17601,-0.33405,-0.30843,-0.436,-0.38504,0.55862,0.30361,-0.2064,0.30353,-0.81851,-0.61457,0.78805,0.5075,0.60962,0.023023,-1.6601,-0.2575,0.66057,0.35458,0.17603,-0.25751,-0.07891,0.22709,-1.2011,0.17604,0.48214,0.27809,-0.18103,-0.33399,-0.35951,0.022998,0.4567,-0.15543,0.63511,0.20155,-0.9461,0.55861,0.58412,-0.25749,-0.43606,-0.10449,0.48208,0.94113,-0.33406,-0.71652,0.17601,0.4056,-1.0735,-0.41052,0.71164,-0.002479,-0.28295,0.43107,0.12505,0.02301,-0.18101,-0.23213,0.99212,0.048659,-1.7875,-1.66,0.3545,1.1197,-0.46157,-0.053451,1.2216,1.4511,0.38011,-0.56344,-0.079021,-0.35937,-0.58915,0.023017,-0.41051,-0.81859,0.22707,0.63511,0.35456,-0.48702,-0.20652,-0.92049,0.71172,0.45655,0.50766,0.023054,-0.079045,-0.38505,-0.38505,0.76263,1.2981,-1.099,-1.201,-0.33396,-0.15553,0.89009,1.3237,0.48203,-0.35942,-0.25753,0.43099,0.074044,-0.64004,-1.1245,-0.027876,-0.18106,0.048543,0.073917,0.40554,0.73709,-0.25746,-0.46142,0.25255,-0.002485,0.17607,0.66062,-0.41054,-0.51245,-1.3287,0.63511,0.63512,0.25255,-0.51254,-0.53804,0.7881,0.25259,-0.10444,0.55859,-0.79304,-0.97158,-0.58913,0.89018,0.8137,0.25257,-0.027993,0.4821,-0.66556,-0.20647,0.3546,0.45656,-0.28303,-0.79306,0.66049,1.1961,-2.8587,-1.7621,0.48203,1.6042,0.99212,1.5531,0.63522,-2.8586,-0.69101,0.50753,0.76251,0.73708,0.15054,0.074038,-0.51249,-0.35954,-0.33409,0.35473,-0.18092,-0.15559,-0.89496,-1.6092,0.17604,1.3747,1.5022,1.7061,-0.86957,-0.30841,-0.23197,-2.9861,-0.23201,1.2981,1.2726,0.35448,-0.79316,0.15059,-0.20649,-0.078904,0.30363,0.71156,-0.23194,-0.69113,0.32909,0.8392,-1.2775,-0.48694,-0.028023,-0.25753,-0.15554,0.99215,0.27802,0.68606,0.30359,0.25262,-0.027962,-0.38497,-1.2776,-1.0991,-0.18094,0.099454,1.2982,0.40557,-0.43595,0.68615,0.45656,0.5585,-0.64012,0.48222,-0.053506,-1.7875,-0.79305,-0.028018,0.099521,0.81369,0.71154,-0.99704,-1.2265,-0.61442,1.2216,0.3544,0.83911,0.022901,1.4512,0.68613,-0.895,-0.20647,-0.48701,-0.15537,-0.99705,-0.35953,-0.23202,-1.15,-0.35951,-0.002534,1.3491,0.99217,-0.53815,0.55866,0.5076,-0.053439,-0.33401,-0.079008,-2.1446,-0.71644,0.81357,0.22691,0.63509,0.45663,0.20151,-0.20653,-0.43593,-0.10438,0.27806,-0.078984,0.58407,-0.38512,-0.97152,-0.63996,0.15059,0.6606,-0.46157,0.40561,0.73712,0.35453,-0.18098,-1.1245,0.17607,1.0942,-0.28306,0.048561,0.35451,0.71159,-1.2011,-0.46155,-0.1045,0.25254,0.43106,-0.71645,0.099637,-0.20646,-0.002461,0.86461,0.78806,0.68604,-0.027907,-1.048,0.22724,-0.6655,-0.23206,0.15045,0.20154,0.17607,0.20153,0.176,0.53308,-0.28297,-1.7621,-0.97163,0.60955,0.53309,0.55861,0.25256,-0.10444,-0.078996,0.66065,0.30349,-0.89504,-0.71645,0.50758,1.0433,-0.15559,0.78818,-0.53804,-0.97153,-1.1501,0.20153,1.6552,0.94111,-0.002399,-2.6292,-1.4306,1.9867,1.4256,0.78815,0.45653,-0.028005,-0.38492,-0.99702,-0.07885,-0.48697,-0.28302,0.20155,0.3035,-0.48713,0.15053,0.099503,0.78818,-0.35957,-0.41046,-0.33397,-0.10456,-0.002448,0.50763,-0.002394,-0.15546,-0.23197,-0.027969,0.53306,0.73709,-1.2521,0.35458,-0.28306,0.7116,0.22702,-0.38498,0.22704,-0.181,-1.0481,-0.18087,0.45664,0.17597,0.58414,-0.1045,-0.46151,-0.81855,0.35449,0.32908,-0.053464,0.2271,0.60967,-0.027969,-0.13006,0.38001,0.35462,-0.66542,-0.35956,0.20166,-0.53806,-0.079021,0.58411,0.099466,-1.3032,0.27811,0.38001,0.32912,0.35466,-0.23194,0.45654,-0.74206,0.023041,-0.12999,0.3291,0.4821,-0.002443,0.50771,-0.35954,0.023041,-0.69105,-1.6346,-0.079057,1.3746,0.78814,0.176,-0.25748,-0.10449,0.63503,-0.97157,0.17612,0.99218,-0.46149,-1.303,-0.89503,0.8391,0.53302,0.35454,0.6352,-0.38503,-0.538,-0.18097,0.32903,-0.15551,0.53309,-1.1756,-1.9151,1.2217,1.1452,0.38008,0.32905,0.68606,1.1451,0.023047,-2.0426,-0.23204,0.45662,0.15061,-0.538,0.58407,-0.33399,-0.84401,-0.51254,0.32899,0.58407,0.5841,-0.027938,0.048641,-0.002546,0.91574,-0.20655,0.074062,-1.5836,-0.81857,0.30356,0.63495,1.7572,0.27809,-2.1702,-0.053464,0.53312,0.43118,0.32909,0.099588,-0.38496,-0.30854,-0.053525,0.048525,-0.66556,0.60965,0.22704,-0.13005,-0.25743,0.73718,0.25248,-0.30853,0.022986,-0.46153,-0.79296,0.50765,0.53313,-1.1756,-0.18103,0.45652,0.99208,0.94119,0.22704,-0.79302,-0.71654,0.99227,-0.2066,-0.56345,-0.027998,0.25251,-0.18097,-0.97168,0.25249,0.3036,0.55863,0.27805,0.53329,0.12509,0.074026,-0.56352,-1.966,0.40556,0.43098,0.45652,0.25255,0.53309,0.60963,0.66056,-0.84404,-2.0426,-0.46154,-0.25751,0.94112,0.8901,0.15059,-0.12996,-0.18087,0.38012,-0.1556,-0.38505,0.22705,-0.10449,0.25256,-0.053476,-0.35949,0.63514,-0.15553,-0.58897,0.40563,-0.1555,-0.10444,0.25246,0.86456,0.25251,-0.79298,-0.94603,-0.23198,0.12505,0.25258,0.53318,0.32895,0.89007,-0.66554,0.38011,0.17595,-0.053451,-1.252,-0.30846,-0.15548,0.8136,-0.20647,-0.28311,0.8647,-0.053488,-0.69102,-0.18101,-0.18098,0.22714,0.9157,0.83908,-0.43603,-1.8131,-0.18102,0.32902,0.43096,0.48199,0.3036,0.73716,0.25253,-0.84406,-0.15535,-0.895,0.32905,0.048487,0.20164,0.12507,0.6351,-0.33403,-0.7675,-0.56347,-0.10453,0.91554,1.0177,0.27803,0.1251,-0.66555,-1.1756,0.71171,0.63511,-0.10447,-0.12998,-0.25751,-0.35957,0.50758,-0.28303,-0.33402,0.45668,0.43118,-0.078953,-0.53806,-0.079014,0.20155,0.17604,-0.10456,0.30349,-0.30846,0.023035,-0.35948,-0.02792,-0.61453,-0.74216,0.40558,0.45653,1.9358,0.25257,-1.4561,-0.053397,1.0432,0.02295,-1.4051,-0.10451,0.8391,0.58417,-0.028054,-0.078928,-0.41048,0.66079,0.63512,0.15054,-0.51255,0.074033,-0.23205,-1.3796,-0.43598,-0.13008,0.27802,0.12504,-0.41057,0.89011,0.96668,-0.6399,-0.61449,0.17604,0.60963,0.1505,0.12499,-0.10451,-0.33405,0.99226,-0.46151,-0.181,-0.002565,-0.61464,-0.20653,-0.25737,0.40571,-0.66547,0.074081,1.6552,0.3036,-0.69104,-0.84411,-0.053488,0.53306,1.2216,0.43104,-1.456,-0.46159,0.68601,-0.07883,-0.28297,0.5586,0.12505,0.1251,-0.76763,0.099491,-0.18108,-0.027969,0.53318,-0.41048,0.35463,0.12507,0.22705,0.45662,-0.51254,-0.18097,-0.20653,0.099461,-0.30851,-0.10442,-0.20656,0.55856,-0.66556,0.96671,0.32888,-1.6602,-2.4761,0.78819,1.7573,0.4311,0.86461,0.27798,0.58407,-0.58899,0.074075,-0.38504,-0.46153,1.1706,-0.58901,-1.303,-0.38504,0.66057,0.63505,-0.18096,0.50756,0.30361,-0.99706,0.023059,0.43108,0.074062,-0.487,0.68611,0.66064,-0.33401,-0.71657,-0.35958,0.30359,0.048585,-0.23204,0.12507,0.3291,0.048512,-0.002467,0.099546,0.074051,-0.13002,-0.46156,-0.078941,0.09957,0.17604,-0.181,0.30358,0.43109,0.43112,-0.89515,0.96667,-1.1245,-0.89494,0.6861,0.30355,0.073995,-0.9205,0.50755,0.50755,-0.028011,0.40562,-0.25748,-0.30851,0.38008,0.45651,-0.18106,-1.4305,-0.84395,-0.43598,0.63501,1.0941,0.50761,-0.002387,-0.46157,-0.30845,-0.002405,0.15056,-0.13011,-0.51258,0.40558,0.50757,-0.10446,-1.3285,-0.38484,0.35456,0.58397,0.48201,0.60953,-0.43605,0.66058,0.27806,0.12509,-0.38494,-0.74197,-0.66551,-1.5326,-0.35952,0.91557,0.15052,0.68613,0.55858,0.30354,0.40553,0.048555,-0.078984,0.023084,-1.0481,-0.028029,0.68606,0.78828,-0.18095,-1.252,0.048573,0.71151,-0.33401,-0.48707,0.17603,0.71172,0.89012,-0.35961,-0.4106,-0.20657,0.074136,-0.053372,-0.18093,-0.02795,0.048506,0.17611,-0.74203,0.099521,0.66055,0.15053,0.048647,-0.10453,1.2726,-1.0226,-1.3794,-0.84401,0.68608,0.22701,-0.43624,1.9868,1.3237,-0.35941,-0.92043,-0.43596,0.76252,-0.8186,0.50776,0.68607,-1.0736,-0.41055,0.2781,-0.2065,-0.23197,0.81362,0.8136,-1.3031,0.04842,0.73718,0.58408,0.32916,0.074087,-0.46153,0.2015,-0.15545,-0.79316,0.099497,0.81356,0.58424,-0.63998,0.63501,0.86456,-0.94593,-1.0226,0.25254,-0.86954,-0.41048,1.1197,1.0176,0.53307,0.074033,-0.20648,-1.201,-0.12991,0.17604,0.38008,1.1197,-1.3542,-0.51248,0.27798,0.78819,0.63518,0.60966,1.094,-0.38503,-3.1903,-2.6802,1.1451,1.9612,0.94115,0.227,-0.002394,0.60958,-0.15546,-0.079033,-0.28305,-0.027809,-0.94602,-0.61444,0.048536,0.099521,-0.61468,-0.48725,-0.46163,1.2983,-0.43592,0.27806,1.2983,0.91571,-0.61456,-0.97153,-0.487,0.048458,0.25257,1.7574,-0.58922,-1.1756,0.27801,1.2217,0.3036,-0.74206,-0.283,-0.99701,-1.3795,-0.51258,0.99214,1.1196,0.48211,0.66066,-1.0225,-0.81857,0.43101,1.2471,-0.89504,1.1451,-0.41054,-0.35946,1.5279,-1.1757,-1.2266,0.5587,0.17604,-0.12998,0.20163,0.073971,0.53307,-0.51257,0.022961,-0.66558,0.73717,0.099699,-2.068,0.55856,0.58406,0.71154,-0.00251,-0.028072,0.35454,0.43108,-0.56343,-0.99709,0.22708,0.074062,-1.7875,1.3746,0.73715,-0.69096,0.38003,0.71154,0.68617,0.48207,-0.74223,-0.3595,-0.71655,-0.15549,1.6298,-0.64003,-0.48696,0.38006,-0.053366,0.048549,0.20161,-0.1811,-0.3086,1.3236,-0.58899,-1.1501,-0.63996,1.1196,0.96669,0.60968,1.0942,0.074057,-2.6547,-1.4307,1.1451,0.66058,-0.20647,0.71162,0.12509,-0.33399,0.50765,-0.79294,-0.20649,-0.053476,0.3545,-0.30864,0.20159,1.8592,0.86451,-1.201,-4.0573,-0.63998,1.0686,1.8594,1.5021,0.99202,0.48205,-0.48683,-0.20642,-0.12993,-0.58899,-0.58912,-0.283,0.048512,0.17603,-0.12997,-0.10443,0.60961,0.22705,0.12499,-0.51253,-1.201,0.7626,0.91561,-2.8842,0.09965,1.2215,0.91549,0.43105,0.53318,0.15064,-0.63992,0.60968,-0.25756,-0.76762,-0.18106,0.15055,0.43106,-0.20651,-0.41046,0.27809,0.43112,-0.10443,-0.69107,-0.9206,0.81365,1.3237,0.32906,-0.02798,-0.74201,-1.8641,-0.25745,1.9102,1.4511,0.78808,0.32907,-0.334,-0.41048,-0.66554,-0.41049,-0.48698,0.023065,0.43107,-0.30851,-0.41053,0.63495,-0.33393,-0.13005,1.2219,-0.30854,0.22695,-1.3286,-2.1445,1.8848,1.9101,0.76247,0.25246,0.17605,-0.43593,-0.33399,-0.30847,-0.33396,-0.38502,-0.25748,-0.20648,-0.1045,-0.20647,-0.38501,0.37997,0.38005,0.20155,0.35458,0.76262,-0.94605,0.20159,0.30363,-0.33393,-1.0482,-0.35912,0.02284,1.5531,0.99212,-0.51239,0.35459,-0.13002,-0.53823,0.25245,0.66064,-0.002436,-0.10443,-0.23193,-0.30844,-0.35946,-0.41052,-0.18101,-0.10453,0.048525,1.3492,0.73716,-0.35947,-1.5071,-2.3486,-0.15546,0.8901,0.45653,1.7316,0.40557,0.17598,2.3694,-0.51266,-0.12982,-2.0172,-0.56357,0.20155,0.074051,0.022998,0.89023,0.20164,-2.0427,-1.1756,0.43098,0.45654,0.76259,0.86462,0.35459,0.25259,0.66074,0.43101,-0.97153,-2.1191,0.15054,-0.20646,0.43113,-0.028114,0.99217,-0.84409,0.099668,-0.20669,0.07394,0.48208,-0.10447,0.35465,-0.15551,0.6607,-0.23203,-0.283,-0.43593,-0.18103,0.96667,-1.2011,-1.1245,0.9921,0.30346,0.12499,0.53308,-0.20661,-0.15531,0.35463,0.96658,-0.79304,-0.027895,0.71156,-1.1756,-0.94603,0.12499,0.25251,0.7881,0.60959,-0.053464,-0.51244,-0.76755,-0.38503,0.32905,0.89021,0.78809,1.2726,0.22694,0.30371,-0.79312,-2.5271,-2.2974,-0.10454,0.78797,1.1196,0.89007,0.83908,0.66069,-0.18092,-0.15555,-0.56354,-0.97157,0.17607,-0.23191,0.30356,0.27806,0.55856,0.37995,-1.6347,-0.58898,1.6297,-0.20649,-0.97144,0.43109,0.22701,0.45658,-0.23203,0.25257,-0.25753,-0.63993,0.38018,0.35458,0.32905,0.048531,0.35453,-0.25757,-0.51257,-0.20647,-0.33402,-0.02795,-0.15542,0.2526,0.58418,-0.28309,-0.43606,-0.25754,0.074026,0.60963,0.35461,0.48209,-1.1755,-0.20644,0.22697,1.247,0.63513,-0.74196,0.099619,-0.13005,0.27803,-0.38499,-0.25748,-0.41049,-0.15547,-0.25751,0.12504,-0.002479,0.45661,0.76253,0.55867,-1.7621,-0.002472,-0.33396,-1.6603,1.0941,0.73708,1.5532,0.55863,-0.25748,-0.1299,-0.13001,-0.28295,-0.3085,-0.76757,-0.33403,-0.18101,0.53307,-0.13001,-0.027993,-0.027938,0.2016,-0.30846,0.17606,-0.1045,0.32896,1.2473,0.66056,-0.53795,-3.3176,-1.6857,1.5275,1.6807,0.50745,0.55858,-0.25753,0.099528,0.22706,0.17607,0.25262,-0.10444,-0.43599,-0.43596,-0.56347,-0.027956,0.38006,0.30356,0.073995,-1.1501,-0.66553,-0.28301,0.15052,1.2981,1.1452,0.40558,-1.4051,-0.71649,0.30356,0.48206,0.43105,0.30349,0.94119,-0.76752,-0.48691,-0.38506,0.073946,0.329,-0.23203,0.099637,-0.53793,-0.61455,0.22705,0.50764,0.60968,0.22714,0.12504,-0.079033,0.02298,-0.33404,0.22701,-0.18101,-0.20652,0.023059,-0.10444,0.023114,-0.61452,-0.38498,1.2471,-0.028047,-0.99695,0.53305,-0.18106,-0.38492,-0.23202,-0.66553,0.96668,0.17597,0.22701,0.66063,0.074013,0.02301,0.91563,0.17606,-1.0991,-0.538,0.2781,-1.4051,-0.51254,0.9666,0.99208,-1.3796,0.17595,-0.41039,0.48214,0.58412,-0.20642,-0.18107,0.94119,0.45647,0.22708,0.099442,-0.35944,-0.64005,-0.69093,0.53311,0.074026,-0.002369,-0.002448,1.2215,0.30355,-3.1138,-0.41058,1.0942
0.023017,0.17605,0.15057,0.12502,0.1251,-0.283,-0.23197,-0.15548,0.12504,0.048567,-0.76751,-0.002479,0.63507,0.40557,0.15052,-0.002497,-0.027993,-0.05347,-0.053446,-0.053451,-0.10447,-0.283,0.12508,0.048536,-0.10448,0.048561,0.099552,-0.13004,0.048543,-0.10447,-0.13002,0.099577,-0.1554,-0.35949,0.12503,0.099546,0.17603,0.25256,0.023047,0.20158,0.20155,-0.30858,-0.33401,-0.38503,-0.053519,0.38011,0.27809,0.023065,-0.02792,-0.20645,-0.25746,-0.12995,-0.10447,0.15056,0.12501,0.048518,0.27804,0.12498,0.17604,-0.20646,0.023059,-0.002479,-0.18095,-0.25747,-0.002485,0.25256,0.12506,-0.002485,0.099528,0.20157,-0.12998,-0.30848,-0.15546,-0.43597,0.20156,0.17602,0.22704,-0.2575,0.023023,0.099546,-0.002485,0.32908,-0.20645,-0.12993,-0.053439,-0.15554,-0.002528,0.12503,0.17604,0.27808,0.074069,-0.25749,-0.027944,-0.027962,-0.10448,-0.15551,-0.25751,-0.079008,0.22704,0.099552,0.074038,-0.20652,-0.027925,-0.053409,-0.181,-0.027956,0.20152,0.25252,0.17608,-0.15549,-0.07899,0.02309,-0.69105,-0.43602,0.35458,0.50753,0.023017,0.048518,0.25257,0.25257,0.15058,-0.027925,-1.5071,-1.1501,0.71159,0.50755,0.3545,0.12502,0.53308,0.074038,-0.46155,0.099564,-0.1045,0.35462,-0.027969,-1.0481,-0.078923,0.15052,0.07402,-0.30849,-0.12995,-0.20648,-0.002479,0.17606,0.68608,1.1451,0.86458,-0.3595,-0.58897,-0.33399,-0.35948,-0.92056,-0.12995,1.6296,0.60959,-1.3541,-1.9661,0.38006,2.1907,0.9921,-0.58904,-1.3285,-0.28298,0.4311,0.09954,0.32909,0.074008,0.22707,0.91557,0.58411,-1.3031,-1.762,-0.76754,0.48202,0.86458,0.45658,-0.4615,0.43107,1.5021,-0.18101,-0.97157,-0.078959,-0.89501,-0.30843,-0.41043,0.227,0.66048,0.38007,0.32914,1.6042,-0.76758,-2.6292,-0.35949,0.4056,0.99209,0.73708,0.5331,-0.20648,-0.5635,-0.46152,-0.43596,-0.69099,0.91557,0.91557,0.94114,-0.76753,-0.33399,-0.35953,1.3236,0.99202,-0.13001,-0.69094,-1.66,-0.07891,1.7318,0.30353,-1.0225,-0.69094,0.58405,-1.6347,0.3801,0.66061,-0.20652,1.3745,2.5224,-0.30855,1.2216,-2.0171,-4.4653,-0.79302,1.1196,3.3893,2.4968,-0.18096,-1.8385,-0.61457,-2.1192,0.30347,1.6552,0.60953,-0.28305,-0.18094,-1.7621,-1.3285,0.89016,1.4767,1.1197,0.38008,-1.5073,-0.94603,1.7316,1.2217,-0.51261,-0.05358,-0.10437,0.68627,1.2471,-1.2777,-1.66,-1.5836,0.32896,-1.048,0.76253,0.30349,0.8901,0.73708,0.81359,-0.53786,0.17619,0.12507,-0.18111,0.4056,-1.3287,-1.0993,-0.002356,2.3693,3.7974,-0.86938,-6.6584,-1.6346,1.2471,1.0685,0.78815,-0.35946,1.6041,1.1195,0.4565,0.38003,-0.63984,-0.86963,-0.51255,-1.048,-0.79296,2.9048,-0.56341,-4.3887,-0.25753,1.9867,1.6806,1.9357,0.25257,-0.69097,-0.079033,-0.58906,-0.38513,-0.053519,-0.20649,-0.38503,0.20163,1.6553,0.17606,-2.3742,-1.8386,1.3237,1.5531,0.15073,-1.7111,-0.002405,1.5021,1.5531,1.1961,-0.35956,-0.10461,-0.76752,-2.9605,0.15063,1.2727,1.4764,-0.89506,-0.74205,0.38035,-1.5837,0.50755,0.941,0.99206,1.1195,-0.10447,-1.3285,-0.30832,1.1707,0.12502,-0.2065,-0.92065,-0.23202,-0.5381,0.20167,-2.2976,0.023023,3.1598,0.30344,-0.74194,1.0175,1.9611,-0.58896,-4.0573,-1.7109,1.4003,1.8336,1.0939,0.48194,-0.71656,-0.46145,0.40567,2.2417,-0.48684,-4.9244,-0.61465,0.88992,1.7572,0.074026,0.27808,0.96674,-0.078861,-0.38488,0.048536,-0.48709,0.17581,-0.20653,0.048598,-1.3795,1.0943,0.76255,-0.10444,-1.7109,0.35446,0.88992,-0.84406,1.1706,1.145,-0.0535,0.048622,1.0178,-0.86952,-1.7621,-0.56362,-0.18099,0.30346,0.048622,0.40558,1.0687,-0.002418,0.45667,-0.053323,-0.6912,-0.92058,1.094,0.63495,-2.2466,0.35459,0.17616,0.32922,-0.61451,-0.13013,0.43097,0.7371,-0.002394,-0.86943,0.73715,0.8902,0.099521,-0.53803,-0.20642,-0.53805,0.55847,0.3289,-5.0008,-0.8695,1.8337,2.7263,0.78797,0.25255,-0.078928,1.2981,-0.86953,-0.58889,-0.38496,-0.30851,0.20156,0.66059,-1.2521,-0.20639,-0.20642,-0.10447,0.022992,0.37992,2.1652,0.22727,-3.8789,-1.4306,0.94094,0.63499,0.63506,1.3239,1.3493,0.15055,0.17602,-0.053439,-1.354,-0.33404,-0.2065,-0.69107,1.1706,0.40557,0.30355,-0.94604,-1.864,-0.97153,1.4001,1.9611,0.83905,0.96661,0.25262,-0.89491,0.30368,-0.23204,-0.028042,-1.3797,-0.94611,0.074069,0.91567,0.73708,0.38018,-0.46144,0.048531,-0.283,-0.38506,-0.41047,0.38012,0.83902,2.8792,-1.2522,-4.0062,-0.028036,2.1142,-0.027956,0.15059,-1.1245,-0.69104,0.25252,0.9922,-0.81845,0.73711,0.32909,1.6806,-0.43601,-1.099,-0.58897,-0.28306,-0.86963,0.45659,1.2727,-0.33399,-1.5326,0.89008,0.15056,0.86458,0.48206,-1.2775,-0.078928,0.35454,0.22704,0.45664,0.4312,0.27812,0.17622,-0.84402,-1.2522,-0.28313,0.073843,0.37991,-1.0226,-1.0734,1.2472,0.43106,0.25254,0.58409,0.15073,-1.9662,-0.20661,-0.002412,0.5841,1.4256,2.0122,-0.35938,-2.7312,-1.7621,-0.46157,0.81349,0.96663,-0.027882,-0.10434,1.6297,-1.8387,-1.5328,0.45645,1.3747,0.78809,-0.12977,-0.25734,-0.84415,0.27798,-0.20646,-0.23205,0.94114,0.89016,0.50766,-0.94603,-1.7365,1.1706,0.71151,-1.099,-1.303,-0.99702,2.1906,1.3235,-0.38508,-0.48695,-0.027969,-0.43593,0.43112,0.43121,0.0741,-1.5325,0.68613,-0.43621,0.83897,0.78799,-1.2775,-1.6345,1.0941,0.96667,-0.79308,0.15048,0.20169,0.073989,0.91581,0.15064,-0.18115,1.0685,-0.86955,-1.762,0.89015,0.53302,-1.1756,-0.92054,-0.15549,1.8592,1.0942,-0.48691,-0.33402,0.45654,-0.13009,0.32902,-0.28287,-0.74204,0.43111,-1.3541,-0.35955,0.40558,1.6296,0.91562,0.96662,-1.4561,-1.5834,-0.56348,-0.56356,0.45645,0.78791,-0.23208,0.22706,0.58411,1.2983,-0.28292,-2.7566,-0.5635,0.86453,0.9666,-0.25763,0.17594,0.53309,-0.71651,-0.23198,0.176,0.96665,0.81364,-1.252,-2.3486,-0.58901,1.6551,0.73715,-0.13,-0.35951,-1.0481,0.5076,1.3747,1.4512,-1.0736,-1.0991,-0.56364,0.099485,0.55859,0.17612,0.58424,0.35453,-0.66551,-1.1755,1.6297,-0.23206,-1.3797,0.22697,-0.20647,1.2217,0.76261,-0.74199,-0.053342,1.2216,0.099473,-1.0225,-0.61452,0.43112,0.02309,0.27797,-0.23201,-1.711,-0.23203,1.7571,1.4257,0.20159,-0.18089,-0.56354,1.4001,-0.46149,-3.2922,-0.15555,1.5786,0.12509,1.4767,1.0174,-0.84378,-2.4761,0.55846,0.99209,0.40552,0.81354,-0.33399,-0.25743,0.17601,0.20159,0.15064,-0.66538,0.099686,-0.10451,-0.38501,0.32902,0.17598,0.227,-0.53801,0.023103,0.55848,-2.7058,0.68619,-0.23203,1.2982,0.53314,0.94115,0.55854,-1.1757,-0.5635,0.20157,0.66062,-0.51246,-0.12993,0.3291,0.38009,-0.64007,-1.3286,-0.385,0.20148,0.78813,1.6042,0.50761,-0.18094,-1.6091,-0.002485,0.4821,0.48211,-0.1811,1.2472,-0.76758,-0.053573,-0.38504,-0.33394,-0.5125,0.27815,0.68628,-0.10445,-0.38489,0.07394,-0.3086,-0.51257,0.022956,0.38001,0.96676,1.4511,-1.405,-0.02792,0.30371,-1.5838,-0.79319,2.1143,-1.405,-0.30851,1.9613,1.1452,-0.00243,-1.4306,-0.76756,0.68603,1.3492,-0.4871,0.25252,-0.61452,-0.58889,-0.15548,-0.20649,-0.1045,-0.13012,0.30352,-0.15557,0.43108,1.1452,-0.23193,-0.97144,-0.28294,-0.3596,-0.002369,0.83917,0.94112,1.7572,0.2525,-2.3996,-1.0736,-0.35953,0.73715,0.35451,0.50749,-0.18093,-0.027876,0.55866,-0.61446,-0.028036,0.12505,-0.58927,-0.028018,1.0432,-1.5324,-1.966,1.2726,1.7317,-0.002613,0.6096,-0.81852,0.023084,0.40558,0.25257,0.89009,0.63517,-0.74214,-0.02792,-0.23199,-0.69102,-1.5836,0.15056,1.3491,-0.41048,0.22706,0.45659,-0.10452,-0.41048,-0.33398,-0.48696,0.048512,0.073959,0.89019,2.1143,-0.84409,-1.7622,0.45658,0.15059,-0.25752,0.27803,0.17606,-0.53802,-0.027962,0.17614,0.45661,-0.078984,-0.25753,-0.02798,0.099528,-0.15546,-0.00243,0.048561,-0.027925,0.074044,0.2015,-0.86963,-0.078928,-0.027956,1.1961,0.71157,0.27798,-0.56358,-0.84389,0.15064,-0.23181,-0.69108,0.12498,0.50755,0.27802,0.96652,1.3492,-0.10444,-1.4561,-1.2265,-0.10449,0.12502,-0.69102,1.1196,0.40557,-2.2467,0.96666,0.15054,0.35455,0.55861,-0.33401,0.63504,-0.58904,0.66062,-0.25753,-0.20656,-0.00251,-1.9406,-1.0223,1.5023,0.58403,1.1707,-0.33406,-0.64012,-0.43608,0.40556,0.38006,-1.609,1.1196,0.71165,0.22712,-0.5381,-1.5071,0.60963,0.71157,0.32905,-0.10445,0.71164,1.1961,-1.099,-1.507,-0.15545,0.94109,0.73705,-0.48698,-0.28289,1.9866,0.17604,-1.2776,-0.76751,-0.86956,0.68613,0.68612,0.12496,0.20146,1.3237,-0.43593,-1.4305,-0.15547,-0.5381,-0.18108,0.38002,1.4001,0.53307,-0.35944,-1.048,0.12505,-0.38494,-0.053482,-0.89497,-0.94616,0.71156,1.7827,1.1451,1.0432,-0.1299,-0.76761,-0.38502,-0.74204,0.45666,0.17603,-0.38502,-1.0991,0.43097,0.89015,0.60955,-0.84405,-2.9861,-0.46149,1.3747,1.5786,1.7061,1.7062,0.48203,-0.9461,-0.74202,-0.35934,-0.61443,-0.84401,0.30363,-0.079051,-1.1501,-0.10448,0.55863,0.55856,0.22699,0.35454,0.91565,-0.58893,-0.002423,-0.15551,-1.2011,-0.002534,1.0941,1.0941,-0.12999,-0.12995,0.50759,-0.053439,-1.405,-0.53801,-0.30857,-0.94607,-0.63997,1.1707,1.0941,1.094,0.55853,0.68605,-0.2575,-1.405,-0.97151,0.50766,0.22718,-1.0737,0.073971,-0.53809,-0.38493,0.6607,0.91567,1.0176,0.63514,-0.79302,-0.20652,0.86463,-0.64009,-0.86953,-0.053495,-0.23199,-0.58903,0.8901,0.60962,-0.028005,-1.2521,-0.58904,0.66061,-0.23193,0.73711,1.3747,0.55855,-0.81851,-2.0171,1.0175,-0.66547,-0.33395,1.2473,-0.15537,-0.35957,-0.43613,0.66058,0.022901,0.17601,-0.46152,0.30353,1.2218,0.30368,-1.2011,-1.4816,-0.23202,-0.20657,1.3747,0.32903,0.074136,0.15059,1.0686,-1.4561,-2.5527,0.94112,1.7317,0.32912,-0.92056,-1.6601,0.91561,2.4712,0.48208,-1.405,-0.20644,-0.35949,-0.027846,0.6861,0.81357,-0.7166,-2.5272,-0.053568,1.2727,1.0686,-0.51252,-0.18089,0.40568,0.48199,0.022931,0.38011,-0.538,-0.13001,0.20164,0.074013,0.71151,0.40558,-0.76753,-1.8895,-0.61451,0.17604,0.68597,0.48203,0.048561,0.55861,0.53319,-0.58897,-0.23201,-0.002558,-0.46148,-0.027876,0.15057,0.71171,-1.0482,0.15044,0.17598,0.20155,0.4821,0.86467,-0.23193,-0.94609,-0.053513,-0.002552,-0.12995,0.15057,0.2271,-0.002443,-0.15544,-0.23198,-0.078972,0.35456,-0.84406,0.8645,0.40557,-0.81854,0.3801,-0.053525,0.58409,-1.1245,-0.232,0.45657,0.32902,0.25259,0.91567,-0.053525,-0.41043,-1.405,-0.56354,0.073935,0.17604,0.71162,0.32903,0.32904,0.35458,-0.23196,-0.28302,-0.18097,0.15059,-0.30844,-0.25743,0.431,-1.4816,-0.71652,0.66055,0.71156,0.60968,0.76262,0.68595,0.17604,-1.7621,-1.0479,0.30356,-0.1556,0.25252,0.60957,-0.027969,0.099583,1.2727,-0.38503,-2.3742,-0.20647,-0.13004,0.35457,1.0942,1.0432,0.17604,-0.33407,-0.25756,0.074038,-0.25743,0.048512,0.38006,0.43111,-0.86954,-0.74196,-0.20641,0.15059,0.43097,0.45658,0.125,-0.12991,-0.74206,-0.28306,0.25243,0.63509,0.76267,1.0687,0.30357,0.48211,-2.1192,-1.7622,0.15051,-0.02795,-0.12993,1.5787,0.91554,-0.12993,-0.589,-0.35956,-0.97155,-0.15548,0.43104,-0.53804,0.50754,1.4512,-0.51255,-0.4359,0.48209,0.12504,0.048512,0.22708,-0.15546,0.63504,-1.3286,-0.84395,1.6041,0.30354,-1.3031,-0.4615,-0.41049,0.22706,0.43096,0.55861,0.32904,0.68595,0.20171,-0.48701,-1.15,0.15064,0.91572,-0.51248,-0.66556,0.40551,-0.3851,-0.20658,0.99213,0.15065,-1.252,-1.4305,1.2726,0.12493,-0.079051,1.0687,1.3492,-0.436,-1.5581,0.15052,0.38003,0.63512,-0.66555,-1.099,0.048549,0.63506,0.63512,0.35458,-0.33396,-1.2011,-0.002534,0.50752,0.76261,0.55858,-0.23197,-1.048,-0.30855,0.55859,0.023054,0.09954,0.12511,0.048531,-0.25751,0.12502,0.25255,-0.181,0.48212,0.38,0.60957,-1.7111,-1.7876,0.71161,0.20163,0.22706,0.58414,0.6096,0.15048,-0.15547,-0.74203,0.50748,-0.05358,0.17604,0.17606,-0.41046,-0.84403,0.32915,0.099546,-0.71648,0.83911,0.48205,0.32901,-0.12998,0.099552,-0.12999,-0.41051,-0.41048,0.074051,0.40549,0.20152,-0.946,-0.053421,1.0432,-0.002448,-0.92064,0.48216,1.0176,-1.3031,-1.2775,-0.25754,0.9665,0.83909,0.43101,0.45667,0.40565,-1.4306,-0.84405,0.40557,0.27808,-0.002534,0.73718,0.12504,0.12514,-0.334,-0.15544,-0.18105,0.22708,-0.38502,-0.35948,-0.51248,-0.053531,-0.71651,0.431,1.1706,0.17607,-0.053397,1.5532,0.2271,-1.5581,-0.20652,0.40557,-0.078972,-0.027969,-0.1045,0.5076,-0.028085,-0.53788,-0.28294,-1.8131,0.17597,0.78808,0.40556,0.81362,0.27808,0.329,-0.5125,-0.51244,0.584,0.78807,-0.79295,-1.15,0.63504,0.89003,-0.84401,-0.97142,0.073953,0.30353,0.71163,-0.53808,0.22704,1.0687,-0.53803,-0.69104,-0.8185,1.0175,-0.56353,-0.538,-0.10445,1.3746,0.94108,0.99217,-0.48697,-1.2776,-0.71652,0.074087,-0.23201,0.27808,1.4511,-0.71658,-0.71649,-0.18094,0.22713,1.3746,0.94112,-2.5272,-2.8077,1.5533,1.6551,0.94111,0.12499,-0.30858,-0.46154,-0.48689,0.20159,0.43112,0.125,-0.793,-0.81856,0.45654,0.048598,-0.18101,0.50767,0.25255,0.48201,-0.283,-0.053506,-0.38497,0.48204,1.0686,-1.8386,-0.92053,0.78808,0.023072,-0.41044,0.48196,0.15052,-0.13002,-0.46145,0.2781,0.15046,0.43105,0.48211,0.78806,-1.5326,-0.078966,0.048727,-0.84407,0.27813,-0.2575,0.02295,0.4565,0.94107,0.15054,-1.3795,-0.028005,1.1452,-0.30855,-0.12995,-0.23202,0.50762,-0.002423,-1.0227,0.5076,0.81371,-0.232,-0.33399,-0.53806,-0.078996,0.45665,0.12505,0.074002,-0.41051,-0.43598,0.55866,0.32907,-0.18103,-1.5583,0.099497,0.48203,0.58409,-0.15541,-0.61447,-0.002423,-0.18086,0.35458,-0.53802,0.35449,0.48206,0.68604,0.40552,0.15059,-0.89488,-1.2775,-0.23202,-0.079063,0.91552,0.71158,-0.64001,-0.38502,-0.94603,-0.30856,0.6096,0.074106,0.22716,0.96659,-1.201,-1.2267,0.89,0.86463,0.78816,-0.027913,0.32913,-0.05347,0.073995,-0.7931,-0.48703,-0.15551,0.048525,-0.28297,-0.76752,0.99215,0.86459,-0.53791,-0.51249,-0.25758,0.22697,0.83912,0.099559,-0.23197,-0.07891,0.45664,0.25259,0.023023,-0.38502,-0.10451,-0.53801,-0.00254,0.58397,0.81363,-1.2265,-0.33385,-0.23201,1.5023,0.45653,-1.558,-2.0427,1.349,1.3746,-0.30841,0.40556,0.5586,-0.28295,0.30358,0.15056,-0.15549,-0.3085,-0.38502,0.12505,-0.027962,-0.43605,-0.43601,-0.61449,-0.002467,0.6096,-0.15548,-0.028005,0.35452,0.63505,0.50754,0.35458,0.58417,-0.43592,-1.4303,-1.507,-0.46159,1.1705,1.2727,0.022956,1.1196,0.66053,0.099546,-0.10448,-0.027938,-0.053427,-0.33394,-0.64004,-0.56353,-0.38495,-0.38497,-0.053506,0.7626,-0.18101,0.099534,0.66062,-0.71651,0.35454,-0.079002,-1.048,-0.079026,0.63505,1.1962,-0.002394,1.1707,-0.18104,-0.56357,-0.35954,-0.38505,0.20167,-0.30861,-0.15551,-0.15536,0.048525,0.38005,0.048598,-0.15547,0.07402,0.38008,-0.58898,-0.283,0.20159,0.32905,0.63509,-0.58903,-1.5581,0.45653,0.76257,-0.23196,-0.1045,-0.48713,0.2525,0.89018,0.50773,0.27804,0.50768,-0.20658,-0.28309,-0.002443,-1.099,-0.35943,-0.64,1.0941,1.1707,-0.48698,-0.436,0.074038,-0.51245,0.38009,2.0887,0.20155,-1.4306,-0.86961,-0.25753,-0.053476,0.40557,0.6606,-0.79309,0.15049,0.023096,0.074075,0.099534,-0.20653,0.20157,0.35462,-0.61454,-0.30847,0.30357,0.099521,0.38008,-0.15551,-0.2575,0.20154,-0.58923,-1.5835,0.83935,0.43106,0.63505,0.60955,0.63504,0.45658,-1.048,-0.053476,0.048494,-0.86963,0.17606,0.27809,-0.10451,0.73719,-0.38495,-0.51255,-0.10443,0.048531,0.32902,0.25255,0.30358,0.32905,-0.13001,-1.099,0.074081,0.32908,0.9156,0.22708,-0.53795,0.17603,-0.81858,-0.51247,-0.053458,-0.25751,0.22702,1.4001,0.96657,-0.28289,-1.0991,-0.63996,-0.10448,0.94109,0.58405,-0.53807,-0.35947,-0.71651,-0.84398,1.4257,0.35453,0.30357,0.099552,-0.079014,-0.13001,-0.23201,-0.181,-0.078977,-0.23194,-0.283,0.023072,0.074081,0.048549,-0.41047,-0.13,0.50754,0.91564,0.55858,-2.0681,-1.0225,1.2982,-0.53811,-0.84395,0.50763,1.4766,1.1706,0.5585,-0.23205,-0.56354,-0.28295,-0.538,-0.28297,-0.46152,0.023065,-0.02792,-0.002412,-0.12994,-0.002418,0.40558,-0.12996,0.15051,-0.48706,-0.86959,0.25252,-0.002497,1.6297,0.53314,-1.5836,0.58407,1.1452,-0.66555,-0.7675,0.022937,0.68606,-0.61442,-1.4306,0.71168,0.68599,0.73706,-0.33404,-0.64008,0.22705,0.22706,0.023059,-0.078935,-0.25748,0.2781,-0.12996,-0.002479,-0.51249,-0.41049,0.86457,-0.35954,-1.252,0.38006,0.3545,0.58406,0.32914,0.12505,-0.33394,0.22705,0.35458,0.40556,-0.48702,-0.23197,0.63521,0.992,-0.61447,-3.0118,-0.002418,0.32906,0.53304,0.83911,0.66056,0.15052,0.38005,-0.053464,-0.30846,-0.027956,-0.71652,-0.20648,0.074062,-0.58904,0.023065,0.3802,0.58402,0.48203,-0.58902,-0.99707,0.8901,0.55855,0.45661,-0.25744,0.099552,-0.10455,-0.81855,-0.94612,0.86462,-0.436,0.17614,-0.2064,-0.2065,0.37996,0.63509,0.048585,0.12518,0.12499,0.227,-0.76765,-0.25743,0.43108,1.0687,-0.69105,-0.84412,0.12503,-0.23205,-0.48695,-0.20648,0.91562,0.89006,-0.58894,-1.3541,-0.33395,-0.33399,0.81363,1.2727,0.58405,0.022992,0.50755,-0.99707,-1.2776,-0.053446,0.27808,0.048543,0.278,0.25268,-0.86957,-0.33389,-0.5635,0.37997,-0.41066,0.58407,1.2216,-0.33395,-0.35948,-0.33406,0.35458,0.78821,0.09957,-0.51256,-0.61448,0.023041,-0.002497,-0.33398,0.099559,-0.28308,-0.5125,0.5841,-0.35942,-0.18103,0.35458,0.53303,-1.0225,-0.74189,-0.18102,0.94106,0.76253,0.76267,0.96666,-0.15551,-1.048,-0.20655,-0.51257,-0.7165,0.023041,0.5586,0.074013,0.12506,-0.41046,-1.2523,-0.18101,0.58415,0.68613,0.45665,0.55862,-0.30855,-0.76746,-0.12996,1.0431,0.074038,-0.35951,-0.15554,0.07402,-0.15553,0.48205,0.55858,-0.56345,-0.84397,-1.2266,-0.12998,-0.33399,0.89014,1.9868,0.86468,0.40554,-1.2267,-0.58908,-0.58903,0.15055,0.48216,-0.38486,-1.2775,1.1196,0.86458,-0.487,-0.18114,0.20146,0.25257,0.074075,-0.86961,-0.51244,-0.61449,0.35448,0.60963,0.43113,0.02295,0.81365,-0.84397,-0.66546,-0.15552,0.43103,1.0685,0.68617,-0.99705,-1.3286,0.58403,0.45662,-1.0479,0.176,-0.0535,-0.56342,0.35449,0.35454,0.15057,0.20151,1.4256,0.81371,-0.35948,-0.48703,-0.30849,-0.89506,-0.74192,0.32907,-0.23202,-1.0226,0.76267,0.68604,-0.79305,0.68603,-0.15547,0.55867,0.12508,1.0687,0.07402,-0.20649,-0.002491,-0.38501,0.15061,-0.43591,-0.51252,0.73704,-0.30848,-2.1447,-0.25747,1.4001,1.4767,0.50757,0.17607,0.32905,-0.25748,-0.25744,-1.4305,-0.51251,0.43106,1.043,-0.23207,-0.74196,-0.84411,0.4055,-0.15552,0.96684,0.22707,0.27817,-0.30858,0.48195,0.22703,-1.0735,-0.18093,0.71157,-0.23193,-0.30845,-0.283,0.89012,0.53307,-0.18108,-0.51254,-0.86958,-0.12991,1.1451,-1.3541,-1.3541,0.73708,0.3291,0.38011,0.68613,0.40555,0.048518,0.17606,-0.002423,-0.38499,0.15062,-0.13004,-1.4051,0.48202,-0.053458,-0.4614,0.25262,1.3746,0.048445,-0.69104,-0.23201,0.15058,0.22705,-0.027962,0.68611,-0.38506,-0.94605,-0.05347,-0.18103,0.099552,0.40563,0.17611,0.12507,-0.46153,0.074008,-0.15556,0.099503,0.30357,-0.30851,-0.25743,-0.4614,0.074111,0.43115,-1.2777,-0.35956,1.1451,0.76252,0.73703,-0.027956,-0.41039,-0.25746,0.17606,0.04858,-0.43598,-0.46152,0.023023,-0.053446,0.074051,-0.053488,-0.18098,0.43106,0.78807,-1.8132,-0.41046,-0.28304,0.76248,1.1707,0.023286,-0.5637,-0.33413,-0.74192,0.55867,0.38005,0.12496,0.15051,0.022998,-0.5381,-0.181,-0.078972,0.023114,-0.3339,0.12512,-0.02795,0.12505,-0.027993,-0.10453,0.22708,0.22706,0.35458,-0.81851,0.176,-0.33402,-1.3541,0.63509,0.71158,0.25264,0.71167,0.50759,0.30351,-0.61465,-0.35944,-0.6146,-0.12999,-0.53799,-0.15545,-0.38499,0.40557,0.53304,0.55859,0.43108,-0.027962,-0.38499,0.099577,-0.385,-0.23198,-0.002454,0.43106,0.099559,-0.7165,-0.28298,0.30358,-0.43612,0.89015,0.048409,0.32907,1.0944,-1.5072,0.83928,-0.94618,0.074002,-0.027913,0.58399,-0.10449,-0.33401,0.09951,0.32908,-0.20649,0.12514,-0.15546,0.02309,-0.053427,-0.38503,-0.28302,-0.20648,0.40558,0.76257,-0.38505,-0.94597,0.66057,0.96655,-1.3796,-0.51249,0.099583,0.55866,0.38013,0.63515,0.63508,-0.18109,-0.15547,-0.20649,-0.23199,-0.334,-0.61458,0.68616,-0.7166,-0.5635,0.53314,0.6096,0.32907,0.25258,-0.053488,-0.28298,-0.58901,0.43104,0.63506,-0.33409,-1.6089,0.58412,-0.053513,0.55852,0.43099,-1.1756,0.63514,0.94121,0.074087,-0.64006,0.25258,-0.027998,0.73707,-0.53795,-1.4306,0.02309,0.17614,0.099583,0.30353,0.83902,0.76254,-1.2521,-0.97146,0.68608,0.099595,-0.078947,-0.002503,0.5076,0.20137,-0.053653,0.32907,-0.38493,-0.7419,-0.002326,-0.23191,-0.69102,0.60962,0.43102,-0.6401,-0.18107,0.22699,0.099497,0.27805,0.86469,-0.23187,-0.28295,-0.61456,-0.9971,0.35452,0.81368,0.431,-0.30843,-0.84404,0.17602,0.12507,0.32903,0.15049,-0.05347,0.2271,-0.33398,0.074026,0.63518,0.30355,-0.5635,-0.9205,-0.079039,-0.28305,0.38015,-0.053544,-0.13001,0.8902,-0.027956,-0.23208,-0.18098,-0.64011,0.43113,0.3546,0.71163,-1.2011,-0.25741,0.71152,0.43106,0.15058,-0.46153,0.30353,0.32904,0.073995,-0.844,-0.99705,0.099546,0.40557,0.17606,0.53308,0.22706,-0.53799,-0.7676,0.78814,0.073989,0.20163,-0.20648,0.58403,-0.35945,-0.79313,0.048573,0.50754,-0.078947,-0.12985,0.63515,-0.078953,-0.35948,-0.028005,-0.30852,0.099454,0.25243,0.66055,0.43114,-0.58889,-1.201,-0.25753,0.55848,0.022974,-0.002423,0.4566,0.43103,-0.20643,-1.9916,-0.94603,1.4766,0.68602,1.2727,0.0485,-0.66557,-0.64006,-0.30849,0.71171,0.25259,-0.99706,-1.6092,1.0687,0.27818,-0.079063,0.73705,-0.38508,0.35473,-0.38506,0.38008,-0.23204,0.40565,-0.053519,0.099479,0.17606,-0.053519,-0.10451,-0.12986,-0.63998,-0.89499,1.0686,-0.81851,-0.46151,0.89004,-0.002443,-0.053464,0.89005,-0.18097,0.25248,0.63508,-0.97144,-0.53798,0.20158,0.35456,-0.58903,-0.38511,-0.002448,0.30358,0.38012,-0.74199,0.3035,0.27799,-0.33404,0.35461,0.66069,-0.027938,-0.51252,-0.23202,-0.027969,0.58406,-0.56348,-0.58896,0.30347,0.30347,-0.76757,-0.74199,0.32915,0.71154,0.25256,0.53318,-0.61452,-0.28294,-0.30856,0.71152,0.35459,0.35453,-0.053378,-0.35948,-0.43613,-0.41052,-0.43598,0.35457,0.76266,-0.76753,-0.81849,0.45662,0.20159,0.48209,0.17595,-0.58905,0.15045,0.40553,-0.41054,0.4821,0.86475,-0.58893,-0.35951,0.073965,-0.84405,-0.30853,-0.078959,-0.35953,0.76257,0.50764,-1.558,-1.4561,0.89011,0.81353,-0.027993,0.78806,0.12501,0.35461,0.074062,-0.35947,-1.4816,-0.20641,0.63502,0.17603,-0.94602,0.43107,0.32899,-0.15542,-0.23204,0.5585,1.6297,-0.18091,-1.099,-2.5272,0.12499,0.8391,-0.20642,0.58408,1.0686,-0.61462,-0.41047,0.35464,0.68606,0.022974,-0.71649,-0.027944,-0.41053,0.81362,-1.2012,-0.41043,0.02309,1.4256,1.0941,-1.3796,-2.119,0.89016,1.0941,0.63498,0.40542,-0.66553,-1.3031,0.58411,0.48211,0.17616,-0.12994,0.12508,0.048525,0.48204,0.66048,-0.18101,-1.8641,-0.30839,0.63509,0.73706,-0.23198,0.023059,0.58405,0.1761,-1.0481,0.40552,-0.4105,-0.43591,0.7626,0.40551,-0.48707,0.17609,-0.38492,0.50768,-0.30851,-2.6546,0.58409,0.91555,1.2726,0.35453,-0.12998,0.94101,0.30358,-1.405,-0.38495,0.63524,-0.38511,0.099552,0.20153,-0.58898,-0.20646,-0.76745,-0.69105,1.5279,-0.20678,-0.25763,0.73703,0.27805,-0.84406,-0.74193,0.76273,0.55856,0.63514,-0.02798,-0.41057,-0.002363,-0.18103,-0.028036,0.32908,-2.0682,-2.4507,0.91563,2.8283,0.53318,-1.405,0.40565,-0.97156,-0.28308,0.048371,0.73706,0.43115,0.02309,0.30365,0.94111,-0.053519,1.0942,0.12503,-0.84409,-0.28301,-0.69111,-0.94601,-0.97146,-0.20645,0.38006,0.35451,0.04858,-0.053427,0.86466,0.1761,1.9102,0.125,-1.5326,-1.0226,-0.46161,0.99213,0.50752,0.8137,-0.10452,-0.946,-0.84398,0.58418,-0.078984,-0.97155,0.07402,-0.64014,0.20154,1.3748,0.91569,-0.76752,-1.0226,-0.28303,0.68608,0.68618,0.073928,0.55859,-0.28293,-0.94605,-0.25752,-0.079014,0.55862,-0.3595,-0.46142,-0.71652,-0.38511,0.81356,0.40555,0.43101,-0.002461,0.66057,0.76275,-1.6346,-0.51236,0.431,0.38001,-0.58902,-0.74204,1.1706,0.71162,-0.742,-1.9151,0.329,-0.02806,1.1196,1.1962,-0.10445,-0.027944,0.50757,-0.64008,-0.28302,-0.46144,-0.10445,-0.51254,-0.43595,-0.10451,0.38006,-0.13001,0.27812,-0.38507,0.22705,1.4257,0.96657,-2.7312,-0.89497,0.40561,0.81361,0.53303,0.50757,0.78807,0.17602,-1.1245,-0.74199,-0.002436,0.099521,-0.028029,0.176,-0.30847,0.53309,0.048598,0.048592,0.68613,0.048592,-2.0427,-0.61452,-0.10452,0.53302,0.30353,1.5022,-0.13001,-0.94604,-1.252,-0.43597,0.96658,0.83918,0.15051,-0.30857,0.73725,0.099528,-0.078977,-0.28306,-0.15543,-0.436,-0.28298,-0.20646,-0.35947,1.2471,-0.66558,0.38014,-0.23199,-1.0481,-0.43599,-0.89504,1.2471,0.9412,0.91568,0.45658,-0.30852,-0.30853,-0.002528,-0.35957,-0.12988,-0.002374,0.5587,-0.43609,-0.56353,-0.35951,-0.23197,0.60959,-0.002552,1.1707,-0.53804,-0.66549,0.099681,0.12502,-0.002534,0.53306,0.27809,-0.23205,0.40559,-0.13004,-1.3541,-1.7621,-0.33395,0.94116,1.1196,0.73703,0.48206,0.15049,0.78816,-1.558,-1.9661,0.022974,0.96648,1.1961,-0.41048,0.45667,-0.20656,0.86461,0.25251,-0.79296,-1.8131,-0.15548,0.71162,0.32912,-0.10446,0.22707,0.8646,-0.15557,-0.43605,0.43105,-0.028011,-0.078977,0.12515,-0.86953,-0.46142,0.099485,0.35464,0.12494,-0.64018,0.27808,0.99219,-0.94599,-1.0735,0.20164,0.48207,0.81359,0.68602,0.20152,-0.30846,-0.15554,-0.12995,-0.58896,-0.64008,-0.48708,-0.92055,0.73701,0.99211,0.40557,0.048531,-0.1045,0.17609,0.48217,0.099564,-0.25747,-0.8695,-2.1191,-0.48696,0.32902,0.81355,0.58398,-1.4051,-0.71649,1.5022,0.99204,0.55866,-0.028047,0.4056,0.68613,-0.43613,0.45652,0.048629,-0.97155,-0.43593,-0.76752,-0.33399,-0.10441,-0.028018,0.83914,-0.15546,-0.23199,0.35457,0.15056,-0.12998,-0.38505,1.1196,-0.15542,-0.53805,0.91557,0.7626,0.50748,-2.6291,-0.81844,0.89016,0.89018,-0.053537,0.96652,-0.94606,0.40555,0.5076,-1.4306,-1.099,0.8901,1.3492,0.17607,0.45657,-0.33398,0.91562,0.20156,-2.5017,-1.7367,-0.15556,0.7626,1.4257,0.78804,0.048641,-0.56348,0.30356,0.38011,-0.69108,0.68613,0.89022,-0.53801,-0.71658,-1.8898,-0.33398,0.17593,0.32894,0.45665,0.99227,0.50763,0.023041,-0.027987,-0.25759,-0.38496,-1.1756,-0.002412,0.431,0.12506,-0.538,2.3437,-0.69107,-1.9915,-0.35945,0.94117,0.71155,0.58396,1.2725,0.09954,-1.2267,-0.41043,-0.02792,0.099534,0.32899,-0.027987,-0.89509,-0.38498,0.099601,0.60962,0.3036,0.27812,-0.12997,-0.23201,0.8645,0.43113,-1.7111,-0.38503,0.048445,0.22701,0.78818,0.81371,0.073953,-0.79298,-0.86951,0.3545,0.60965,0.60964,-0.15548,-0.53803,-0.2065,-0.13017,0.38008,-2.1448,-0.027956,0.53321,-0.38492,0.30361,0.78813,0.94106,1.4766,0.15052,-1.8386,-0.79306,-0.18104,-0.74203,-0.15544,0.8392,0.30363,0.27811,1.2471,0.20148,-1.0991,-0.69101,-0.74201,0.048536,0.48208,0.86459,-0.74198,0.58402,0.12503,-2.2211,-0.97141,0.96668,0.7116,0.37996,0.63496,-0.74201,1.0433,0.074087
-0.10449,0.023041,0.12507,0.048555,-0.25751,-0.30849,-0.18098,-0.02798,-0.053495,0.09954,0.27805,0.27807,0.38011,-0.078966,-0.28299,-0.23197,-0.20648,-0.23198,0.15057,0.22707,-0.30858,-0.35957,0.09954,0.32909,0.35459,0.1251,0.048592,-0.027956,-0.02798,-0.12999,-0.027987,0.074026,-0.027993,-0.053476,0.048555,0.048561,-0.05347,-0.18098,-0.078972,-0.027962,0.20154,0.17603,0.099534,0.023047,-0.002436,-0.23199,-0.18099,-0.15549,0.09954,0.099564,0.20158,0.099564,0.048543,0.074038,-0.33404,-0.23201,0.099528,0.099515,0.17607,-0.15547,0.25254,0.074069,0.099577,-0.002423,0.12507,-0.46156,0.15053,-0.15547,-0.30851,-0.53801,0.30356,0.099521,0.32907,0.40556,0.45659,0.40557,-0.25748,0.17603,-0.46147,-0.35953,-0.18098,0.17605,-0.79301,-0.64001,-0.10446,0.6861,0.63507,0.27803,0.73709,-0.15547,-0.64001,-0.053464,0.15054,-0.078977,-0.18097,0.15057,0.2781,-0.027987,-0.20649,0.25254,0.17603,-0.41046,-0.6655,-0.58901,0.40552,0.30353,0.15051,0.17603,0.40557,1.1197,0.20155,-1.4816,-1.8641,-0.027974,1.1452,1.6041,0.43108,-0.18103,-0.74203,-0.12996,-0.58904,0.58408,0.68608,-2.0426,-0.30843,0.35458,0.78809,1.8081,-0.58905,-1.3796,1.0176,0.35459,-0.86955,-0.385,1.2982,1.1451,0.048561,-2.7567,-1.099,0.5331,-0.078953,1.1451,-0.46154,-0.10447,0.25257,0.66064,0.32904,-0.71654,-0.51255,-0.33405,-0.002491,1.1452,1.4002,0.20156,-1.6855,-1.2266,1.1451,0.73724,-0.385,-3.8788,-0.23199,1.8082,-0.18089,1.3746,1.196,1.1196,0.17601,0.27801,0.20146,2.1398,0.17608,-5.2558,-3.8787,1.3746,1.2471,0.8136,-1.9915,-0.28297,1.8081,1.7061,1.6296,0.66056,1.1961,1.8082,-0.63996,-5.2049,-0.63994,0.073989,-2.2721,0.45654,2.3947,0.3801,-2.6037,0.83913,2.0122,1.0431,1.2726,-0.81857,-0.23198,-1.4051,-0.61448,-0.48707,1.1706,0.99222,-0.86952,-0.51256,0.5076,0.3802,-0.81852,-0.92059,0.022998,1.3745,-0.35961,-1.7876,1.3237,0.35473,-1.7366,1.2727,1.1707,0.074093,1.6807,0.073898,-0.94609,-0.76761,0.09957,1.2726,-1.2264,-1.8896,0.73712,-0.23201,-0.35949,-0.13001,-0.89487,0.2526,1.6551,0.50758,-0.81861,0.22696,0.37994,-0.79309,1.2727,1.2727,-0.48694,0.30363,0.1506,-2.6036,-1.3285,-0.053568,-1.8132,1.0941,0.86458,0.074026,0.73707,2.5477,1.4767,-2.6802,-3.7001,0.86461,0.86453,-0.07899,0.78806,0.12516,-0.99707,1.9356,-0.46149,-0.94609,-0.58901,0.89014,0.73719,-0.51263,-0.58907,0.30348,0.55853,-0.053384,-1.201,-0.078928,0.71163,-2.0936,-0.23197,1.2726,-0.61455,-1.1501,1.7061,2.2418,-2.5015,-2.3488,0.96652,1.2982,0.96659,0.48199,-0.30854,-0.61457,0.71176,0.55866,-0.793,-0.41039,-2.5526,-1.5835,1.7315,2.1143,-1.1758,-0.61466,1.1451,0.86462,-1.1756,0.76258,0.12508,0.20172,-0.56347,-1.4816,-0.56361,-0.487,0.58408,1.7062,-0.66534,-0.69095,1.2981,0.50755,1.0941,0.048433,-0.66547,-0.63995,-0.66553,0.38005,0.43107,-0.15548,-0.895,-1.0226,1.5276,0.15059,-0.15538,0.55853,-1.66,-2.1703,1.3747,1.7318,0.94122,-0.028078,0.32892,0.45648,-0.793,-2.3232,-0.94604,0.048561,1.7827,2.0888,0.099693,-0.895,-1.0736,0.37997,0.073971,0.227,0.53309,0.20162,0.89021,-1.7877,-1.6346,-0.43606,0.5585,1.2727,-0.053519,0.35465,-1.0481,-0.33393,0.58411,0.60956,-0.002454,-1.864,-0.30841,0.35453,0.40545,1.9101,0.5075,-1.15,-1.4815,0.48219,0.81359,0.55858,0.35458,-0.41055,0.32898,0.25256,-0.71648,0.17605,-0.18093,-0.385,-0.84396,-0.48706,-0.48706,1.247,0.43115,-1.1755,-0.002448,0.099619,1.6551,0.2015,-0.35954,-0.53801,0.48211,0.63499,-0.81851,-0.71641,-0.10444,0.099595,0.83908,-0.46151,1.6042,-0.15543,-2.6802,-0.64009,0.20139,0.45662,1.4001,1.1707,-0.10449,-1.6856,-0.46141,0.22711,-0.028018,-0.61462,0.58408,0.76258,0.91554,-0.28292,-1.1244,-1.405,0.048512,0.023023,0.12497,0.53304,0.12502,0.89015,0.38006,-0.33391,-0.58902,0.83909,0.68608,-1.1245,-1.5071,-0.97162,-0.84408,2.1653,-1.099,-1.201,1.043,1.5532,-0.48697,-0.002467,-1.1246,-0.56358,1.5278,0.94107,0.27797,0.20152,-0.51244,-1.2266,-1.2011,-0.33395,2.1908,0.45647,-1.354,-1.456,1.8592,0.40551,-1.1501,-1.5071,-0.46154,1.2982,1.7572,1.5532,0.048463,-0.20643,-0.35954,-1.3796,-0.20642,-0.23198,0.4311,-0.64001,-1.303,-0.15547,0.83906,1.6552,0.32908,-0.58905,-0.20657,0.20153,-1.3031,-0.078935,1.3492,-0.97158,-1.6346,0.60954,0.022961,0.25252,1.2471,0.38019,-0.64002,0.3547,0.19971,-0.53984,-0.56348,0.12499,0.37995,-0.23203,0.94124,0.55852,-0.51254,-0.51249,0.30363,-0.7675,-0.002479,0.9921,1.3491,-1.6857,-1.3796,0.86467,1.1963,0.1251,1.3237,-0.33394,-1.2012,0.32899,-1.3796,-1.4051,1.6042,2.0377,0.12504,-1.558,-0.9205,2.0376,0.99203,-1.6346,-1.8386,1.0431,1.2982,0.76266,-0.53804,-0.71649,0.22704,-0.12994,-0.51245,-0.56361,-0.33404,0.25254,0.45656,-0.002423,0.71163,-0.33399,0.20152,-0.51252,0.15054,0.40557,0.48206,0.96661,-0.46144,-0.84401,-1.405,-0.15542,0.048482,0.25251,-0.10444,0.20148,1.0942,0.60953,0.278,-0.12995,-1.2266,-1.8641,1.1963,0.3546,-0.078928,0.20152,1.0432,-0.4105,-0.30849,0.99204,0.20154,-3.8788,-0.56345,0.5585,0.12507,1.5023,1.1452,-0.053537,0.35448,0.17601,-0.61456,-0.053421,-1.711,0.35458,0.9666,0.89014,-0.63998,-1.3541,0.76258,-0.10447,-1.5071,0.022998,0.68606,0.22708,-0.12993,0.71158,-0.43602,0.60959,-0.027913,-1.4561,0.73701,0.20151,0.94122,0.71163,-1.6345,-0.33402,0.074013,-0.61454,-0.002485,0.9156,1.1452,-0.18093,0.45662,-0.2321,-0.5636,-1.3286,-0.64005,0.91559,0.83913,-1.2521,-0.63994,0.78813,0.074106,-0.079008,0.4056,-0.23196,0.99212,1.0941,-0.76755,-0.02798,-0.33398,-0.538,0.58404,-0.18095,-0.30847,-1.1501,1.247,0.22705,-1.2266,1.1196,0.58404,-1.2265,-0.38491,1.3236,0.99215,0.048555,-0.48695,0.1505,-0.89503,-0.48697,-0.053531,0.71154,1.0431,0.30363,-0.35945,-1.1502,0.25246,1.0432,-1.2265,-1.2265,0.50758,0.53307,1.9357,-0.028018,-3.2923,0.38001,1.3747,0.81359,0.76258,0.30356,-0.66545,-1.354,-0.35948,0.32909,0.9921,-0.2065,-0.28301,0.53301,0.86463,-0.8695,-0.97151,-0.61458,-0.027956,0.99207,0.20156,0.58418,-0.35951,0.35453,0.099601,0.89014,-0.86956,-0.89508,-0.10447,0.53307,0.86454,0.45656,-0.10449,-0.48706,-0.12999,-1.6855,0.4567,0.43105,0.27805,0.15048,0.66056,0.45654,-1.0225,-1.762,1.0941,1.4511,0.40558,-0.7931,0.78813,-0.92057,-0.30858,1.0431,0.48211,0.20163,-0.84404,-1.2521,-0.28297,0.86469,1.3746,-0.20652,-1.3797,1.0176,-0.64,-0.81846,1.0431,0.35461,0.30351,0.099454,0.76256,0.45656,-1.9661,-0.66546,-0.18094,1.2216,0.86458,-0.58918,-0.66555,-0.20642,0.40566,-0.12999,-0.027858,0.048525,0.68599,0.176,-1.15,-1.1755,0.60967,0.68608,-0.232,0.53304,0.71155,0.25252,0.96661,0.20158,-2.6546,-1.6091,-0.28305,0.99207,1.3747,-0.12992,0.27809,0.27803,0.91557,-0.13002,-0.97152,-1.1755,-0.18107,0.43112,-0.63998,0.94119,0.22702,0.68611,0.30348,0.023072,0.6606,-0.92054,-1.354,-0.41058,0.78818,0.50748,0.48209,-0.23201,-0.15548,0.91555,-0.027858,-1.2265,0.60959,-0.66555,-1.8641,-0.35953,0.83903,0.94102,0.91563,0.27806,0.81367,0.20164,0.2781,-1.3286,-2.2467,-1.2521,1.1707,1.3237,0.15049,0.50749,0.227,0.048629,-0.18098,0.55858,-0.20648,-0.69093,0.099637,-0.13005,-0.25756,-0.28304,0.02298,0.32912,0.63512,-0.078966,-0.94608,-0.283,-0.10445,0.66057,0.43109,0.68613,0.58412,-1.4305,-0.71651,0.023005,0.48207,0.78808,-0.5125,-0.51249,0.53303,0.023005,0.60967,0.76256,-0.61459,-3.1392,-0.2065,0.58415,1.6807,0.66054,0.35455,-0.30849,-0.20646,0.099577,0.15056,0.15059,-0.28299,-0.48705,-0.28302,-0.30847,0.94112,0.45655,-0.30846,-0.61449,-1.303,0.86458,0.68599,-1.0991,0.12507,0.53309,1.0176,0.20161,0.22707,0.30358,0.22708,-0.38492,-0.56349,-0.35952,-0.81858,-0.053458,0.37995,0.32901,0.023108,0.17606,-0.97146,-1.3541,1.0176,0.91554,0.25249,-0.079002,0.099619,-0.4614,0.76258,0.96669,-0.84411,-0.15539,-0.15547,0.048506,-0.99708,0.15054,1.2726,-0.66549,-0.538,1.2471,0.55855,-0.41043,-1.5581,0.15054,-0.079021,0.4311,0.32905,0.3291,0.76265,0.35456,-1.7366,-0.99698,0.94113,-0.23204,0.30346,-0.28297,0.68605,-0.53812,0.53312,0.55866,0.38007,-0.12989,-0.41047,-0.13005,0.43106,-0.18101,-1.0735,-0.48703,-0.86947,0.32904,0.27803,0.53304,0.96654,0.5076,-0.63998,0.45662,-0.71647,-0.89505,0.0485,0.25251,0.27806,0.35462,0.4056,-0.58897,-0.23201,-0.027993,-0.64009,-0.079008,0.099503,0.60963,0.38007,-0.86944,-0.33391,0.60948,-0.793,-0.079124,-0.41048,0.30356,0.66072,-0.25751,0.63507,0.30358,0.09954,-0.56355,0.48215,-0.13002,-0.10454,-0.18098,-1.099,0.12503,0.58407,-0.00243,-0.76752,0.43118,0.278,1.1452,0.38005,-2.7822,-0.56362,1.1196,1.0686,1.4512,-0.33389,-1.0481,0.53307,1.1706,0.48203,-3.5218,-0.99706,0.50752,0.86458,0.89011,0.30353,-0.43599,0.074044,0.30355,-1.0225,-0.5635,0.43106,0.86459,-0.43604,0.12501,0.43105,0.38006,-0.002472,-0.13,0.12509,0.25263,-0.078923,-0.71652,-0.28301,-0.38505,0.27816,0.15052,0.329,-0.027956,0.22701,1.1196,0.4821,-0.76757,-0.92063,0.17611,0.023108,0.17609,0.71157,0.89008,-0.51246,-0.078898,-0.10446,0.048445,-0.66554,0.66069,0.023017,-0.51254,0.15051,0.63499,-1.1501,-0.20642,-0.30841,0.38009,0.55859,-0.002467,0.074044,0.022998,-0.15551,0.78812,-0.053421,-0.30839,0.099521,1.6041,-1.2011,-0.63996,0.17599,1.2983,-1.1246,-0.53809,0.86463,1.1196,-0.02798,-2.2211,0.58422,0.73715,0.099583,-0.028078,0.45647,0.35453,-0.027956,-0.2575,-0.20646,0.02301,-0.3595,-1.15,0.40557,1.5786,-0.334,-0.5125,0.53308,0.96663,-1.4051,-0.20652,-0.38498,-0.12999,0.25255,-0.10447,-0.66551,0.68603,0.2526,-0.61446,0.40559,0.68616,0.25254,0.48204,-0.61456,-0.002381,-0.2066,-0.64011,-0.10451,0.35461,0.45666,-0.181,-0.79297,0.22715,0.50755,-0.69103,-0.94603,0.22696,1.0176,0.50751,-0.079021,-0.41044,-0.002461,-0.23208,1.2981,1.4257,-2.4505,-2.6036,0.35451,1.3491,1.2726,1.0176,0.55859,-0.86949,-1.2011,-0.3595,0.22706,-0.13001,-0.12999,0.20158,0.89016,0.30366,-0.28292,-0.002491,-0.13005,-0.33407,0.27799,-0.38502,0.45667,0.27812,-0.69101,0.43112,0.022919,0.71154,0.27812,-0.89493,-1.0226,-0.58902,0.17606,0.43107,0.63504,1.2216,0.023108,-1.6856,-0.13001,0.73706,0.45658,-0.053482,0.30361,-0.94604,-0.25746,-0.079057,0.048487,0.02298,0.048561,-0.027969,1.0177,0.22708,-1.1755,-0.23196,0.074044,-1.2776,0.25249,0.43106,-0.078984,0.73709,0.099497,0.35457,0.27808,-0.3085,-1.2267,-0.66558,0.66056,-0.69096,0.048585,0.58412,0.3291,0.12513,-0.66558,0.40549,0.073989,0.63509,-0.436,-1.2521,0.22705,0.53312,-0.12995,0.02301,-0.12999,0.17603,0.60956,-0.79305,-0.12996,0.38006,0.50759,-0.99702,-0.76747,0.023035,0.45649,0.37998,-0.12999,-0.12992,1.1198,-0.41051,-0.18101,-0.13002,-0.71663,0.099528,0.38009,-0.23193,-0.30844,0.17609,0.63512,0.278,0.17603,-0.51252,-0.56353,0.94116,-0.56351,-0.5635,0.30356,0.022986,0.38001,0.45662,-0.15545,0.17612,-0.28302,-1.1757,-1.099,0.91567,2.8793,-0.7931,-3.1647,1.1707,1.2472,0.30355,0.60957,-0.12999,1.2216,-0.25757,-2.7566,-0.84401,-0.20653,0.278,1.2472,-0.02798,-0.53802,-0.74205,0.86462,1.7827,-0.078923,-1.4306,-1.3795,0.3291,0.176,1.1451,0.30349,0.12497,-0.053488,-0.20648,-0.30847,-0.61457,1.1708,-1.456,-0.487,0.86454,0.45649,0.60957,0.53306,-0.74201,-1.0735,0.50762,-0.35953,0.35461,-0.74209,0.58411,0.76266,-0.23198,0.38001,-0.2065,-0.35954,0.78812,0.94111,-0.76756,-0.99699,-0.64001,0.58409,0.023041,0.32912,-0.30856,1.4257,-0.81858,-0.46159,-0.25747,0.63522,-0.053397,-0.61449,-0.20647,-0.079075,0.40557,1.1961,-0.84394,-1.5325,0.76256,0.533,0.63507,-0.053446,0.76253,-0.46151,-0.33396,0.17603,-0.20646,-1.4306,0.71171,0.35455,0.35459,-0.56345,-0.35957,0.99202,0.35453,0.27806,0.27809,-1.405,-0.02792,-0.25754,-0.002565,0.53302,0.12504,0.023029,0.55864,-0.15539,-0.71648,0.43102,-0.15552,-1.0735,-0.15554,0.329,0.099473,0.022974,1.5532,-0.12995,-0.2064,0.38016,-0.38498,-0.15546,-0.76759,-0.66551,-0.64001,0.71148,0.89004,-0.18098,0.25257,0.074111,-1.3285,-0.64002,0.99212,0.5585,0.17602,0.73706,-0.05347,-1.0225,-0.63995,0.35455,-1.1245,-0.28295,1.2727,1.6042,0.482,-1.2521,-2.0682,-0.71648,0.35459,1.0942,0.86465,0.023041,0.45655,-0.79315,-0.81852,0.40556,0.58398,-0.48699,-1.1245,0.3801,0.20163,0.43112,0.43111,-0.027974,0.022998,-0.002467,-0.41053,0.12508,0.38007,0.91559,-0.436,-1.8131,-0.79306,0.55857,0.66057,0.48206,0.60959,0.27809,-0.002412,-1.15,-1.4561,1.1196,1.0431,0.50759,-1.3797,-1.3031,0.074044,-0.078984,0.6096,0.35456,0.50766,-0.15542,-0.10449,-0.002521,-0.41058,0.25252,0.43107,-0.51249,-1.048,0.43115,0.22702,0.63513,-0.12994,-0.58907,0.099546,-0.079051,-0.10447,0.60961,1.8337,-0.078923,-1.8131,-1.6601,0.45654,0.89021,0.50755,0.27804,0.48203,0.30353,0.12506,-0.38497,-0.56345,0.09954,-0.25741,-0.89502,-0.94612,0.43102,1.0431,0.32898,0.32912,0.048518,-0.51254,0.1506,-0.002436,0.50759,-0.53804,-0.38503,-0.002423,1.0177,-0.1554,-0.69099,-0.89504,0.66056,0.35462,0.048476,-1.5836,0.022998,1.1195,1.2982,0.63509,0.20152,-0.64001,-0.99713,-0.20645,-0.10445,0.48211,-0.43596,-0.69099,0.15054,0.15048,-0.078966,-0.15549,0.073995,-0.078959,-0.74203,0.43106,0.32908,0.048487,1.2982,0.15054,-0.48699,-0.053402,-0.10457,-0.76762,0.73706,0.38017,-0.97146,0.86461,0.8136,-1.5326,-0.53793,-0.18106,-0.078977,-0.181,0.6861,0.53312,0.22707,0.17607,0.35451,-0.25751,-0.33405,-0.053451,0.099534,-0.23197,0.074081,0.074075,-0.46147,-0.181,-0.74203,-0.43593,1.4511,0.048476,-0.20661,-0.078984,0.38012,0.20156,0.074033,0.60965,-0.027998,-1.8386,-1.8131,-0.35947,0.83909,1.0686,0.60954,0.32902,0.023084,0.048555,0.17604,-0.002461,-0.61451,-0.94608,-0.12992,-0.41049,1.5532,0.048525,-1.6345,-0.053476,0.45661,0.68609,-0.56353,1.0431,1.4001,0.074008,-1.1246,-0.538,0.17603,0.22708,0.17612,-0.15549,-0.30848,0.30361,0.48209,0.58403,-0.81854,-0.89506,-0.53801,0.55862,-0.33407,-1.099,0.60958,1.3491,1.6297,0.278,-0.28298,-0.92052,-0.53801,-0.25748,-0.53796,0.048585,0.30356,-0.41051,0.023029,0.22702,1.1961,0.55857,-1.7621,-0.46147,-0.28296,0.022998,0.76256,1.6807,0.329,-0.25745,-1.048,-0.35954,-0.79312,-0.10444,0.073965,1.5534,-0.181,-0.64003,-0.28298,0.074038,0.25252,0.96655,0.99206,-0.99708,-1.864,-0.38503,0.3291,0.94114,1.4002,-1.2776,-1.3795,1.145,0.22701,0.66054,0.68607,-0.63998,-1.354,-0.053451,-0.18105,0.048458,0.40565,-0.20645,0.099588,0.048567,0.048482,0.30353,-0.10449,-1.099,0.6096,-0.053427,0.17605,-0.81854,0.074026,1.1196,0.53309,-0.89504,0.1251,-0.74207,0.073965,0.81371,-0.3851,0.074087,-0.10454,-0.25748,-0.48707,0.63518,0.30368,-0.38489,0.53302,-0.18104,0.048469,0.30361,-0.97152,-0.30847,0.50759,0.58411,-1.0991,-1.2521,1.7061,0.86458,0.074149,-0.078977,-0.46156,0.63503,0.32902,-1.6601,0.15063,0.30365,-0.92047,0.17603,0.25252,-0.33398,0.63509,0.68605,-0.02798,0.25251,0.73708,-0.84403,-2.3486,1.2216,0.60961,-0.10449,0.38008,-0.12994,-0.28297,-0.20646,0.40552,-0.28305,-1.1501,0.32903,0.43107,0.15057,0.40566,-0.20646,0.68601,0.43104,-1.3541,-0.58897,-0.46148,0.50757,0.94115,0.58409,1.0175,-0.10451,-2.119,-0.53802,0.074087,0.12502,0.7881,-0.13005,-0.079008,0.12507,-0.18108,-0.18095,-0.41046,0.30358,0.023072,0.43112,-0.33399,0.2525,-0.18096,-1.048,0.53301,-0.28302,0.20155,0.63512,-0.30847,0.48211,0.81357,0.17603,-1.2521,-0.793,0.099497,0.22704,0.45664,0.099528,0.38006,-0.71651,-0.18103,0.023029,-0.63994,-0.078966,0.63511,0.76257,0.099497,-0.20654,0.023035,-0.30847,-0.25754,-0.23193,-0.33396,-1.048,1.0176,0.6351,-0.41049,0.55858,-0.053495,-0.027931,-0.92057,-0.23198,1.1706,0.50763,-1.5836,0.43106,0.68608,0.43108,0.048549,-0.10448,0.074044,0.15053,-0.84405,-0.51251,0.35455,0.12506,0.074051,0.22717,-0.13002,-0.002546,0.17611,-1.4817,-1.6857,0.76261,1.2982,-0.10443,0.27809,0.7626,0.60962,-0.46153,-0.76753,-0.51255,-0.2575,0.20152,0.25253,0.048561,-0.12998,0.074062,0.22706,0.023108,-0.69105,-0.38499,0.6607,0.12499,-0.07899,0.68602,-0.283,-0.76748,-1.0735,0.2016,1.0687,0.5841,-0.7675,0.63498,1.1706,-0.3085,-0.69095,0.15056,-0.30852,-0.41055,-0.23198,-0.027993,-0.053458,0.023072,0.15059,-0.61453,0.48206,-0.18093,-0.053415,0.15047,0.73709,-0.89505,-0.23194,0.78812,0.30356,0.32901,0.20153,-0.76744,-0.97157,-0.053433,0.40553,0.32905,0.074026,0.35458,0.43104,-0.5125,-0.181,0.43107,0.66065,-0.51247,-1.201,-1.6601,0.35449,1.1707,1.0431,-1.5071,-0.81856,0.89009,-0.79305,0.099461,0.71158,1.0431,0.83916,-0.38503,0.22705,-0.002443,-1.099,-0.538,-0.078917,-0.15547,0.48209,-0.48706,-0.027944,-0.64006,0.073984,0.45656,0.30363,0.9667,0.78812,-1.2776,-1.9406,0.83914,0.66054,0.20155,-0.56356,0.50752,0.45661,0.32905,0.50768,-0.30849,-1.6856,0.4311,0.40549,-0.23197,-0.079008,0.35456,0.20155,-0.69104,0.43105,0.30358,-0.33399,-0.25749,0.099503,-0.35948,-0.48699,-0.64001,1.7062,0.43099,-0.20652,-0.053427,-0.56359,0.94108,0.4056,-2.0936,0.50757,0.15054,0.17603,-0.028029,-0.18099,-0.97153,0.73715,0.40559,-0.053458,0.17601,-0.12999,0.099546,0.278,-0.35946,-1.2265,-0.053458,-0.053555,0.022986,0.431,0.78811,0.30357,-0.74201,0.40558,0.43108,-0.30844,-0.99697,-0.12997,0.073989,0.15045,0.8391,-0.33403,0.17606,-0.92053,-0.69104,0.58411,-0.79302,-0.078935,0.81365,0.73711,0.43108,-0.15548,-0.71658,0.176,1.1961,-0.43595,-1.1245,-0.079033,-0.23202,0.20159,0.32905,-0.15548,0.3035,0.30354,-0.51252,-0.76751,-0.002448,0.5076,0.94116,0.68605,-2.7312,-1.7366,1.9103,1.2726,0.6096,0.32907,-0.79305,0.35455,-0.30848,-0.56348,-0.18096,-0.46154,0.35458,0.89009,0.50749,0.27815,-0.35945,-0.38506,-0.18095,-0.28302,-0.46145,-0.64003,0.329,0.53296,0.38004,-0.71642,-0.38495,1.1452,-0.25748,-0.64,0.53307,1.1451,0.78807,-0.86955,-0.33398,-0.41044,0.074051,-0.078996,0.023084,0.30347,-0.30856,0.048543,-0.079002,0.38005,-0.58899,-1.201,0.48215,-0.12994,-0.64003,0.89007,0.73707,-0.61445,-0.027956,0.66055,0.63505,-0.61459,-0.99708,-0.10449,0.91559,-0.02795,-0.74193,0.43115,-0.38506,0.15056,0.58412,1.0686,-0.84399,-1.4816,0.17597,0.40548,-0.43603,0.074051,0.02301,0.45666,0.074075,0.048561,-0.48697,0.55856,0.099503,-0.64003,-0.15549,0.50755,0.27805,0.20159,0.40556,-0.078935,-0.4615,-0.30849,0.40557,-0.25749,0.25259,-0.92055,-0.38502,-0.25749,0.40557,0.25259,0.023005,1.0177,0.43103,-1.3286,-0.33405,-0.20646,1.0176,0.15049,0.074118,0.048622,0.20161,-0.02795,-0.48705,0.25263,0.12498,-0.41049,-0.86958,0.35453,0.27798,-0.30856,0.27809,-0.25742,0.12509,0.17606,0.30354,-0.20646,0.15059,0.40554,0.35453,-0.92054,-0.63998,-0.38503,0.30349,0.78814,0.48206,0.099528,-0.027931,0.25255,-0.15548,-0.25747,-1.1755,-0.12995,1.0175,0.25255,-0.64009,-0.895,0.94114,0.45662,-0.23202,-0.35949,-0.13001,0.099577,-0.385,0.86466,0.32907,-0.027956,-0.487,0.048518,-0.053519,-0.33398,-0.027987,0.22704,-0.028036,-0.25748,-0.25749,0.78812,-0.10439,-0.23197,0.53309,0.074106,-2.1957,0.6096,0.55854,0.50759,0.25258,0.20152,-0.13,0.40556,-0.43601,-0.41054,-0.15541,-1.15,0.27803,0.50758,0.22704,0.35451,-0.10445,0.63507,0.83909,-0.15552,-1.405,-0.53792,0.20157,-0.46148,0.27805,0.58407,0.55853,0.048512,0.048567,0.58417,-0.25757,-0.43595,-0.12995,-0.48702,0.073984,0.15054,0.12503,0.20155,-0.71652,-0.053439,0.30355,0.48211,0.20154,-0.28302,0.43107,0.5331,-0.79304,0.099626,-0.20649,-0.28296,0.38003,-0.56344,-1.0481,0.022986,0.55853,0.71162,1.1962,0.22698,-0.51259,-1.0734,-0.46149,-0.23193,0.60959,0.022998,0.074013,0.12497,0.023152,-0.25748,-0.15546,-0.283,0.099497,-0.1045,0.099552,0.15059,0.074075,0.45651,0.43107,-0.053433,-0.078984,0.048531,-0.4615,-0.86953,0.58407,-0.20647,0.12507,0.4565,-0.15549,-0.51244,-0.895,0.38011,0.96667,0.25249,-0.07907,0.55858,0.074044,-0.69096,-0.027871,-0.18106,0.27803,0.50755,-0.53798,-1.303,0.048463,1.0941,0.53303,-0.12999,-0.18096,-0.027938,0.074033,0.27808,-0.48699,-1.6856,-0.58899,0.074026,1.0176,1.4001,0.83909,-0.71651,-0.30846,0.32907,-0.8184,-0.793,0.32903,0.89002,-0.33407,0.1505,0.12501,0.12508,-0.38492,-1.7621,0.71164,-0.053433,-1.1246,0.66055,0.91555,0.83908,0.53308,-0.56356,0.68622,-0.02795,-0.13005,-0.97152,-0.51257,0.53312,0.099552,0.27798,0.5076,-0.053427,-0.76753,0.35467,-0.89494,-0.1044,0.278,-0.86952,0.76256,1.298,-0.6911,-1.2777,1.0942,0.89015,-0.12991,0.55866,0.71156,-0.76758,-1.3286,-1.15,-1.4305,0.40558,0.83915,0.58405,0.431,0.25244,0.43111,-0.20649,0.074075,0.22702,-0.84405,-0.99699,0.048592,0.22705,1.0687,-0.46151,-0.33404,-0.15555,0.25246,0.63511,0.99208,-1.4306,-0.66547,0.27802,0.38014,-2.0936,0.66052,0.94106,0.53311,0.6861,0.45661,-0.66552,-0.027974,0.12502,-0.86958,0.40564,0.35463,-0.99707,-1.4561,-1.5836,1.4511,0.83915,0.96666,0.40558,0.30352,0.48205,-0.33398,-1.0225,-0.46154,0.17606,0.15048,0.27808,-0.38494,0.73709,-0.10444,-0.28297,-0.28306,0.22699,0.788,1.5277,-0.86947,-1.2776,-0.51247,-0.053439,0.45658,0.43106,0.63509,-0.10453,-0.053458,-0.61453,0.074051,0.38006,-0.28301,-0.66545,0.43108,0.58415,-0.6145,-0.053476,0.63498,-0.89514,-1.6091,0.53308,1.7826,1.1197,0.17605,-1.15,-0.05339,-0.10449,0.50757,-0.053482,-0.10445,0.32904,-0.64003,-0.5635,0.40555,-0.12988,-1.0481,-0.84409,1.4766,-0.12999,-0.053488,0.45655,0.63512,0.3291,0.1506,-0.46147,-1.0736,0.35461,-1.3032,0.099491,0.023059,-0.84405,0.71157,1.6042,0.27811,0.22709,0.023084,-0.66558,-0.46147,-0.30849,-0.18093,0.02301,-0.10447,0.17605,0.15049,0.32905,-0.74201,0.12504,0.55855,1.3236,-0.002374,-1.6346,-0.25753,0.99213,0.73709,-1.048,-0.53795,0.022986,-0.51258,-0.002479,0.5331,-0.43602,0.48214,1.1196,0.81356,-1.201,-1.303,0.048531,0.45657,0.55857,0.35453,0.32907,0.17604,-0.71655,-0.63998,-0.79302,-0.002412,0.074062,-0.053488,0.20153,0.37998,0.68605,0.48206,-0.053353,-0.76748,0.15054,-0.43602,-0.002479,0.15058,-0.053476,0.48206,0.38008,0.074026,0.30356,0.3291,-0.43601,-0.10452,-0.793,-0.71657,0.048555,-0.41048,0.71166,0.50755,0.176,-0.38505,0.66069,0.15052,-0.181,0.048536,0.12506,0.074069,-0.23198,-0.74201,-0.28298,0.048469,0.58409,-0.078947,-0.2065,-0.64006,-0.28294,0.20155,0.074013,-0.15549,0.58411,0.68609,-0.18095,-0.35951,-0.02792,-0.71657,0.099497,0.45658,0.20153,0.3546,0.20157,0.048567,-0.35951,-0.71657,-0.027956,0.12509,-0.10447,-0.027969,-0.35949,0.30356,0.22706,0.83909,0.099564,-1.6601,0.25254,0.25256,1.1706,0.40561,-0.61447,0.074124,-0.18101,-0.46158,0.12508,-0.23203,-0.46148,0.099521,-0.23199,0.15051,0.40558,0.27805,0.48211,0.048634,-2.2721,0.15049,0.15049,-0.027962,0.7626,0.66053,-0.51249,-0.41049,0.48206,0.023035,0.048531,0.15061,0.43115,0.048469,-0.86956,-0.58903,0.22703,0.15057,0.55862,-0.00243,-0.74202,-2.0682,0.58405,0.60952,0.78805,1.2471,0.66061,-0.053421,0.023035,-0.89502,-1.0225,0.30354,0.40554,0.12502,0.43108,-0.10447,-0.23197,-0.078972,-0.41051,-0.078874,-0.053433,-0.20647,-0.33401,0.40551,0.27802,0.58406,-0.23192,0.17606,0.30358,-0.10449,-0.38495,0.32902,-0.181,-1.0225,0.38003,0.66062,0.60963,0.20149,-0.12991,-0.71656,0.17606,-0.25748,-0.43596,-0.30851,0.83912,0.32898,-0.23191,-0.58907,-0.33401,-0.053525,0.12501,0.78813,0.17605,0.22705,-0.53798,0.30355,-0.10444,-1.6346,-0.30854,0.76261,0.43111,0.048458,0.30354,0.22704,-0.20652,-0.12996,0.27811,-0.002405,0.099528,-0.18095,-0.25756,-0.20649,0.63515,-0.6655,-0.053464,0.45661,0.074062,-0.33403,0.30355,0.7371,-0.38499,-0.43606,-0.84405,0.66051,0.15056,0.22705,0.45658,0.63511,-0.078947,-0.487,-0.6146,0.27815,-0.436,-0.1045,0.048573,0.099528,-0.10449,-0.23196,-0.48708,0.71165,0.20158,0.15053,-0.053531,-0.64006,0.32907,0.5841,0.023084,-0.5125,-0.5125,0.30353,1.1451,-0.6655,-0.79301,-0.25751,0.66065,-0.51256,0.58413,0.73709,0.40554,-0.1045,-0.053476,-0.30849,-0.20649,-0.078886,-0.436,-0.53798,0.12506,0.17602,0.12497,-0.20652,0.22704,0.45655,-0.53796,-0.053458,0.71161,0.43114,0.022998,0.099503,-0.53795,0.023133,-0.5125,-0.79305,0.6861,0.30347,0.53307,-0.43602,-0.078972,0.27803,0.17609,-0.53792,-0.74208,1.1452,0.15059,0.12502,-0.25749,0.048512,-0.53812,-0.41052,0.53312,0.30354,0.12513,-0.33396,-0.25754,0.17595,0.86466,0.6352,-0.74198,-2.2466,1.1706,-0.002528,-0.33396,0.45649,0.30351,0.8647,0.58417,0.22706,-0.5635,-0.84406,-0.002485,-0.12999,-0.20652,-0.027938,0.17605,0.048549,0.048525,-0.00251,0.074026,-0.43595,-0.15541,-1.9916,-0.56349,0.86454,1.8337,1.3236,0.048531,-0.58905,-0.51255,0.89021,0.68616,-0.51249,-1.048,-0.69107,-0.3085,0.7117,0.71158,0.17598,0.20158,0.17604,-0.46151,-0.002461,-0.23193,-0.18095,-0.28306,-0.00243,-0.002528,0.63501,-0.43596,-1.7365,0.023023,1.1452,1.4768,0.48199,0.099461,0.27803,0.022998,-0.74199,-0.76751,-0.15549,0.43115,-0.76757,-0.53796,-0.3595,0.32907,1.0687,0.30359,-1.9661,-0.86957,1.3746,0.58398,0.81349,-0.15545,-0.74192,0.45666,0.30355,-0.053531,-0.58903,-0.41053,0.22711,0.43112,-0.027913,-0.30849,-0.002461,-0.20652,-0.0535,-0.079039,0.38006,-0.23198,-0.43596,0.50763,0.40558,-0.94605,-1.6601,0.96658,1.4767,0.099528,0.83899,0.89018,0.17607,-0.38497,-2.3487,-1.303,0.099564,0.45652,1.3746,0.8137,-1.3796,0.38002,0.55856,-0.46146,-0.41049,0.15048,0.048536,-0.23204,0.15054,-0.30838,-0.053519,-0.41052,0.22708,0.50755,0.35456,1.0941,-0.58901,-1.3031,0.048525,0.5585,0.40561,-0.25743,-0.053458,0.22708,-0.02795,0.55859,-1.4816,-0.81859,0.96662,0.43101,-0.002443,-0.053433,0.20157,-0.12993,0.32905,0.73704,-1.8896,-1.6345,0.15056,0.83906,0.99213,0.58403,0.60952,0.50759,-0.94611,-0.61446,-0.41047,0.53304,-0.027901,-0.66555,0.099521,0.04861,-0.69099,-0.078959,-0.12997,0.32898,0.99208,0.22699,-1.048,-0.053439,0.048433,0.94105,0.81362,-0.86945,-1.5835,0.074093,0.73711,0.55858,0.83904,-0.25758,-0.56352,-1.1501,-0.43595,0.20152,0.99207,0.22706,-0.10446,-0.05347,0.3036,-0.8695,-1.5326,0.43108,0.50755,0.4311,0.81353,0.68604,-0.35953,-0.71653,-0.078923,0.12501,0.63512,0.20156,0.12498,-0.61445,0.60968,-0.30847,-1.8387,0.27798,0.94113,-0.89504,0.15054,-0.538,1.4002,0.38005,-0.2064,-0.69104,0.45655,0.66058,0.78804,0.71154,-0.28298,-2.2975,0.099626,-0.028072,0.15053,-0.053397,-0.76757,0.02301,0.99203,0.40556,1.2216,-0.027931,-1.4561,-0.28298,0.58413,0.17603,0.22705,0.1506,-0.15545,0.074149,0.048487,-0.41057,-0.38503,0.30357,-0.43598,0.40557,0.5841
0.25252,-0.15545,-0.64006,-0.46149,-0.33399,-0.078984,0.15054,0.15053,0.30358,-0.18098,0.20157,0.38008,-0.078947,-0.12996,0.20155,0.73709,0.022998,-0.053458,-0.23196,-0.23199,-0.38502,-0.41052,-0.23202,-0.027969,0.2271,0.20158,0.20155,0.12504,0.22708,-0.10453,0.074062,-0.33402,-0.33401,-0.18098,0.099564,0.15056,0.38011,0.023035,-0.053513,-0.12999,-0.053451,-0.078977,-0.15548,0.023059,0.15054,-0.053506,-0.053464,0.27809,0.17605,-0.13,-0.33399,0.27811,-0.33404,0.02301,0.22708,-0.053439,-0.2575,-0.30855,-0.23202,0.1506,-0.027944,-0.23202,0.27808,0.50762,0.30355,-0.079021,-0.027969,0.15059,-0.078953,-0.48707,-0.18098,0.22708,0.099595,-0.58903,-0.33404,-0.28308,-0.079033,0.7372,0.71175,-0.30855,-0.35957,-0.079008,0.12503,-0.078972,0.099588,0.45662,-0.002472,-0.334,-0.18101,0.2526,0.12507,-0.23199,-0.053476,0.023047,-0.10449,-0.13,-0.25753,0.023005,-0.002485,0.12508,-0.002405,0.3036,0.81365,0.55859,0.09951,-0.41051,-0.20647,-0.33401,-0.20646,-0.5125,-0.35951,-0.30851,-0.15549,0.58412,0.38006,0.20155,0.58414,0.20158,-0.10449,-0.053482,-0.18099,-0.33402,-0.25751,-0.002443,0.02301,0.15056,0.22711,0.48214,0.25252,0.023005,-0.46151,-0.76755,-0.41056,0.48218,0.27807,0.25251,0.074002,-0.38497,0.099577,0.07402,0.30356,-0.15546,-0.35951,-0.002467,0.3291,0.2271,-0.28298,0.38006,-0.079002,-0.15548,-0.12993,-0.38498,-0.10452,0.073977,0.02301,-0.13,-0.002467,0.48213,-0.027993,-0.002472,-0.027944,0.17612,0.55864,-0.20651,0.55863,-0.078966,-0.53811,-0.46153,-0.61455,-0.71648,0.25259,0.45661,0.27803,0.78809,0.55856,0.15053,-0.027938,-0.10444,-0.15545,-0.3085,-0.23198,0.32903,-0.18103,-0.30847,-0.64001,0.58412,0.7626,0.30354,-0.30849,-0.97154,-0.18096,0.27806,0.48206,0.4056,-0.43597,-0.02792,0.63508,0.99214,0.25251,-0.43602,-0.38502,-0.5125,-0.86952,-0.23196,0.022943,0.7881,-0.51249,-0.74198,0.63512,0.38005,-0.43601,-0.35942,1.0941,-1.1246,0.074124,1.7572,1.7826,-0.66565,-0.35954,0.022986,-0.56348,-1.2265,-0.30853,0.074057,-0.027925,0.50762,0.38023,-0.15546,0.17591,-0.58916,-0.7931,0.17625,0.45659,2.0122,-0.74201,-0.69105,-0.07899,-0.053525,0.22708,1.2982,0.96654,-0.89506,-3.6747,0.63505,0.96674,0.40564,1.5277,-1.0737,-1.0991,2.0122,-0.23199,-2.7311,-0.002461,0.86472,2.2162,1.5275,-2.2722,-4.5673,0.074093,0.89024,1.2726,1.4257,1.0942,0.78804,0.32904,0.38008,-1.2521,-3.9297,-0.027815,0.76232,-0.13,1.8847,1.4768,-1.8387,-0.35951,-0.86955,-0.002247,1.0942,0.38001,1.4511,0.099497,-1.3795,-1.3795,0.60958,1.3746,-0.51251,0.20158,-0.86955,-1.0224,-1.1502,0.6351,2.2417,1.0432,-1.8132,1.2216,0.12496,0.76261,1.1197,-1.9915,-0.28283,1.8336,-1.9917,-3.7767,0.27798,1.0175,1.706,-0.028036,-1.6345,1.6553,-0.00235,-0.43598,1.1706,0.91563,2.1396,-0.76755,-4.1593,0.27815,1.1453,-1.9662,0.53311,-0.69122,0.023017,0.71158,0.45662,-0.12998,-0.5126,0.81351,-0.028018,0.099564,0.023023,0.78816,0.5078,-1.2266,-1.252,-1.1246,0.86453,1.2217,1.5277,0.074002,0.58405,-2.8331,-3.9042,1.5276,1.8337,1.9102,0.86458,-0.48703,-0.51253,-0.33398,0.12512,-0.99696,-0.69113,0.63489,0.89015,-1.9151,-1.0225,0.91571,0.43103,1.4511,-0.33398,-0.20652,0.50754,-0.23197,0.43112,0.96665,0.55868,-1.0225,-0.25756,0.58393,0.81355,-2.7823,-0.7163,-1.4306,1.6042,2.4966,0.83915,0.40568,-0.69098,-2.9351,-0.20648,0.81366,0.91548,1.8846,0.32917,-1.7875,1.094,0.58402,-1.6091,-0.10445,0.45659,1.8592,-1.3287,-2.6035,-0.8185,1.6806,2.1908,0.53302,0.073977,-0.027858,-0.078928,-1.0228,-0.51252,-1.4305,0.099626,0.53307,1.0176,0.68596,0.27805,0.30361,-0.89506,0.074118,-0.35946,0.20154,1.1197,0.48209,-0.46154,-2.9862,-1.6601,1.5532,0.76251,1.0431,0.68607,1.6807,1.3237,-0.86948,-2.2467,-1.6347,0.58424,-0.053476,1.0176,0.96663,0.71146,-0.691,0.45661,-1.2266,-1.8641,0.12516,0.58414,1.5786,0.55854,-0.027998,0.48211,-0.078996,0.30363,-0.46148,-0.51252,-0.053519,-0.15538,-0.97153,1.4511,-0.12999,-0.84417,-1.456,1.4511,0.40553,-0.027882,0.15054,-0.20655,1.0175,0.12507,0.43125,-0.63991,0.073928,2.0122,0.66067,-1.966,-1.9661,-0.41058,0.12482,1.349,1.1705,-2.782,-1.6854,0.48204,1.1452,1.0686,0.73711,0.048487,0.15057,-0.99704,0.91561,-0.23196,-1.0989,0.83911,-0.28303,-2.0172,-1.9661,1.9102,1.3491,1.0941,1.0177,0.81362,0.3291,-2.6037,-2.0699,-0.080812,0.96476,0.76074,0.19971,0.046696,0.45661,-0.2065,0.60959,-0.92063,-1.0225,1.8337,0.43101,-0.43598,1.9868,-0.5634,-1.456,0.76257,1.5787,-0.97167,-1.4306,0.048458,-0.61445,0.35455,-0.30846,0.43111,-0.89511,-0.61457,0.022889,0.53313,-1.0734,-0.30837,1.5021,0.48219,1.3746,0.37996,0.20163,-0.10452,0.022974,1.2981,-1.8387,-6.2248,0.55866,2.4201,0.32902,0.20159,2.5987,0.6861,-1.6601,-0.18096,0.022998,0.0485,0.30364,-0.92065,0.58419,-0.20659,0.12508,0.32922,-0.64004,-0.12994,-0.99713,-0.02809,1.2473,0.94119,-1.0481,-0.48708,0.37994,1.1706,2.2927,0.89012,-3.8533,-0.89501,1.7572,-0.56344,-0.46145,0.43111,1.1196,-0.71641,-1.5582,1.6296,0.86458,0.15057,-0.74204,-1.1501,0.048518,-0.053402,0.68615,0.83902,0.38001,-2.7312,-1.048,1.5788,2.0887,-1.2266,-1.0226,1.9102,-0.46142,0.58402,0.27804,-0.51267,-0.28298,0.35451,-0.79304,-1.456,0.32908,1.0175,-1.0225,-2.119,0.91564,0.7881,1.2727,1.0431,-0.53803,0.12509,0.6861,0.048531,-1.0737,-2.6801,0.50754,0.94101,0.91554,1.2216,0.3801,0.20153,0.023072,-0.30855,-1.252,0.17614,-0.94607,-1.099,-0.51251,0.32902,1.4766,1.7574,1.0176,-0.51254,-1.2011,-0.43597,-0.43595,0.58413,1.3236,-0.18117,-1.5328,-0.51252,2.5734,0.76267,-0.63999,-1.303,-1.6855,-2.1446,1.6042,1.1707,1.043,0.60946,0.35446,-0.30856,-0.35926,-0.25737,-0.41052,0.20153,0.58408,0.12507,-0.23204,-1.4816,-0.12995,0.099588,-0.92059,1.2982,0.68622,0.73706,-1.2521,-0.56351,0.73696,0.12496,0.15066,0.94128,0.30361,1.0941,0.43104,-1.0736,-2.2466,-0.66547,0.25257,0.86457,0.15047,-1.2776,0.45657,1.3237,-1.099,-1.1501,-0.4361,-0.053525,1.0686,2.2418,0.76269,0.68617,0.55869,-1.099,-0.436,-0.43607,-0.6656,-0.35967,-0.053549,-0.61438,-0.385,0.22712,0.78818,-0.12997,-0.41058,0.15054,0.83913,1.2981,-0.56355,-1.8131,-0.41036,0.89011,0.71151,0.81356,-1.1245,1.5532,0.30355,-1.7366,-0.12994,0.12502,-0.20657,0.17603,0.73712,-1.048,-1.15,0.83898,-0.18104,-0.89499,1.1197,0.78818,0.27806,-0.86953,-0.58894,0.12506,-0.028042,-0.3595,-0.053709,1.6551,0.073977,-0.89499,-1.3539,0.17606,0.22712,-0.5125,0.43108,-0.15563,0.35457,1.1196,-0.81851,-0.30844,0.45666,0.27803,0.02301,-0.002461,0.32908,-0.38491,0.048629,-1.6602,-0.487,0.45648,0.073977,0.15049,0.53313,1.0432,0.023023,-1.4306,0.55862,0.17602,-0.7675,-0.38486,1.4766,-1.1246,-1.1756,0.48206,0.76267,1.6042,1.9867,-3.6493,-2.5018,0.63503,1.6041,0.55854,0.48213,0.25268,-0.05347,-0.53803,-0.64002,-0.0535,-0.23196,-0.35944,0.099595,-0.18095,-0.25759,0.25255,1.2981,0.27805,0.96659,-0.12995,-1.4306,0.43108,-1.9917,0.96675,0.35458,-0.35951,0.53306,0.15056,-0.7675,0.43107,1.1961,0.12505,-1.0991,-0.028085,-1.2011,0.048634,0.81374,0.81361,-0.002436,-1.201,-0.56345,0.12492,-0.18113,0.074026,-0.10443,0.40566,1.1197,0.35459,-0.35952,-0.56354,-0.61445,-0.8186,0.55848,-0.28307,1.0941,0.38018,0.43128,1.0179,-0.13026,-0.46159,-2.1702,-0.84391,-0.078874,1.4255,0.78813,-0.41049,-0.30853,0.45654,0.20159,-0.63997,-2.0172,-0.84402,1.0686,1.1197,1.8592,-0.97163,-3.2412,-0.027944,2.0122,1.4256,0.25253,0.15064,-0.64001,-0.20649,-0.76751,-0.28297,0.074062,-0.48699,0.45659,-0.94619,-0.94608,-0.51254,0.9412,1.4767,1.3237,-0.48714,-0.15548,-0.69105,0.68614,-0.027944,-1.1247,-0.30858,0.96652,-0.30844,-0.58886,-1.0734,-1.0225,0.78807,0.5586,0.50751,0.73704,-0.35959,-0.79305,0.53316,0.35465,0.099479,-0.33406,-0.078959,0.48214,0.22705,-0.76754,0.2526,0.30357,-0.38499,-0.56348,-0.66561,0.58402,0.63521,-0.10443,1.2472,-0.35949,-0.76747,-0.25753,-0.33396,0.32898,1.2727,-0.66545,-0.10453,0.38001,0.40553,-0.86954,-0.97156,0.32907,-0.74198,0.43108,0.58416,-0.64,0.074069,0.71163,0.66054,0.63512,-0.30856,-0.81855,-0.10458,0.12496,0.023108,-0.35939,-0.793,-0.30851,0.55857,1.1452,0.94118,-0.61449,-1.5327,0.66058,0.35445,0.32913,-1.0225,-0.15556,-0.12998,0.48206,-0.25746,0.12509,0.94112,0.2526,-0.56348,0.6861,-0.385,-1.8387,-0.053544,0.27806,0.50756,0.35456,-0.053378,0.20154,0.15053,-0.41061,-0.41056,0.048555,0.55859,0.43113,0.32906,-0.053427,-1.8641,-0.02798,0.074038,-0.10449,1.0687,-0.028018,0.32905,1.3746,-0.46149,-1.2266,-0.81851,0.099528,0.30358,-0.027956,0.40546,0.4056,-0.58901,-0.25746,0.15052,-0.13009,-0.10453,0.78809,0.9157,-2.2466,-1.3795,1.7063,0.686,-0.35952,-0.12996,1.2216,-0.078977,-0.20652,-0.23205,-0.61455,0.32905,-0.58893,-0.71648,0.40551,1.0177,0.38008,0.38005,-0.8695,-1.6601,0.074051,0.66065,0.20149,-0.46157,0.45667,0.45656,0.22706,-0.027925,0.43108,-0.15556,0.15048,1.0687,-0.946,-2.1956,0.8136,0.91554,-0.6656,0.40556,0.099485,-0.20647,-0.10436,-0.35953,-0.053476,0.17604,0.68597,0.37996,-0.74196,-1.354,0.94117,0.81365,-0.51247,0.63503,0.25251,-0.79302,-0.38499,0.278,-0.18098,0.81363,0.66065,-0.10449,-0.3085,-0.97169,-0.69105,-0.027969,-0.334,0.6606,-0.15543,0.099613,0.17609,0.35454,-0.15559,-0.38506,0.25248,1.8083,-0.66558,0.53318,0.023029,-0.51255,0.6606,-0.18094,-1.0991,-1.4816,-0.86966,0.099515,0.71159,0.32917,1.3238,0.78808,0.023017,-0.46148,-0.71653,0.38008,0.30353,-0.23199,0.30356,-0.25744,-0.002491,0.73706,0.99208,-0.12996,-0.69106,-0.487,-0.48701,-0.33399,0.66064,-0.51259,-1.4561,-0.002399,0.43111,1.5532,0.25262,-0.7931,0.35448,0.73706,0.32908,0.4566,-0.25749,-0.20652,0.074136,-1.2011,-0.99713,0.15054,-0.028023,0.53321,0.83905,-0.66551,-1.5581,0.48218,1.4002,-0.35954,-0.10453,0.839,-0.28299,-0.23199,0.58409,0.30358,-0.20646,-0.81856,-0.74205,0.15055,0.27805,1.8083,-0.18101,-3.2922,-0.74203,1.9613,-0.58908,0.91557,0.048629,-0.25746,0.48204,0.68607,-0.053513,-0.46162,-0.28303,-0.1555,-0.51242,-0.053348,0.38002,0.099521,0.86455,2.4203,-1.9405,-3.5727,1.7573,0.88999,0.55847,0.50752,0.048512,-0.81845,0.074118,0.60954,1.2982,0.27801,-1.1501,-0.38496,-0.43598,0.20158,-0.48696,-0.51255,0.99205,0.83907,-0.793,-1.9661,1.0687,-0.33404,1.1706,0.63506,0.27814,0.17616,-0.10453,0.17598,0.63512,-0.7422,-1.6091,0.94108,0.60968,-1.048,-0.58896,0.023041,-0.76761,-0.43595,0.94114,0.89008,1.2726,0.839,-1.048,-1.6346,-0.35957,0.32911,0.71166,0.91558,-0.053562,-2.2978,-0.51259,0.99204,0.45662,-0.64,0.17629,0.30367,0.53307,-0.027956,0.25255,-0.48709,-0.9971,1.5276,0.94101,-1.2521,-1.711,1.1961,0.2526,-0.94604,-0.10449,0.60944,0.2526,-0.38495,1.2726,-0.28296,-2.3232,-0.078984,0.76256,1.1196,-0.23197,-0.56345,0.68603,0.22712,-0.76756,0.38003,0.55862,-0.30851,0.40559,0.63503,-0.99709,-1.1756,0.22707,0.83908,0.91561,0.38001,-0.63995,-0.12989,-1.048,-0.46145,0.27811,0.37993,1.8338,0.22692,-0.48702,-1.3541,-0.71655,0.048494,0.30366,-0.079026,0.76267,-0.30858,0.38013,-0.41051,0.73708,-0.51252,0.048555,-0.79295,-0.76758,0.45653,0.63507,0.66058,0.40566,0.12508,-0.33396,0.50756,-1.7367,-1.1245,-0.23206,0.12499,0.78813,1.7317,1.4767,-0.9461,-1.5581,1.2726,0.15056,-1.7365,-0.46143,0.27784,1.6552,-0.07899,-0.18092,0.43109,-0.18098,-1.303,-0.4615,-0.23203,-0.027907,0.20151,1.4001,0.25248,0.37994,0.278,-0.23173,-0.92051,-0.25754,0.60959,0.07416,-0.35958,-0.18098,-0.43606,0.48209,-0.74203,0.9411,0.89015,-0.20643,0.099503,-0.35951,-1.099,-0.30852,0.38006,0.38006,0.20159,1.1706,0.5076,-0.002491,0.15053,-0.28294,-0.97152,-0.41049,0.12509,-0.13001,0.20151,0.66062,-0.12998,-0.8695,-0.20652,-0.10443,0.30353,0.048476,0.73709,0.074081,0.81366,-0.30856,-0.99702,-0.69094,-0.053451,0.25248,0.81362,0.099491,0.5841,-0.46161,-0.53798,0.3291,-0.15542,-0.33399,0.25252,0.048525,-0.30845,-0.33398,0.30352,-0.48697,-0.74206,-0.079045,0.30356,1.0686,-0.053372,-0.027969,-0.078959,-0.66553,0.15048,0.89009,0.94111,-0.51252,-1.252,-0.51254,0.38002,-0.38499,0.58408,0.048555,-0.28298,0.12505,0.048506,-0.02798,0.76263,0.27803,-1.1755,-1.5581,0.45654,-0.15534,0.58417,0.6351,0.50755,-0.002485,-0.079118,1.4512,-0.997,-2.0682,-0.1555,0.6351,0.58411,1.4001,-0.79304,-1.3286,-0.002461,0.27808,-0.027944,0.20155,0.2016,0.38008,-0.4871,0.17604,0.17595,-1.15,-0.58893,1.1706,-0.15555,-0.56353,-0.46152,1.3491,0.22704,-0.33396,0.15049,0.45661,-0.48699,0.45669,-0.43601,-0.30851,0.83911,0.074069,-1.2011,-1.4306,-0.74198,0.27803,0.68611,0.83908,0.15038,0.86458,0.048458,-0.51258,-0.51249,-0.18094,0.45668,0.30366,0.099595,-0.48698,-0.43606,0.12501,1.2471,0.048525,-3.0882,-0.66534,-0.18112,1.4001,1.5277,-0.28293,1.6552,0.099564,-1.252,0.17597,0.35449,-0.10466,-0.12986,-0.66547,0.04861,0.0741,-0.76751,0.40561,0.22708,-0.28306,0.86472,0.17595,0.099466,-0.94621,-0.53799,0.83922,0.2017,0.30351,0.073989,-0.23207,-0.38494,0.099503,0.25254,-0.10453,0.099705,-0.46142,-0.64006,1.1196,-1.0225,-0.20652,0.53304,0.38004,-0.00265,-0.43596,1.6043,0.099595,-1.2265,-0.92048,-0.10443,0.53301,0.25247,-0.25763,-0.48711,0.73722,0.76277,-2.3486,-1.6602,0.58398,1.7062,0.71151,0.27814,-0.61446,0.099399,0.6861,-0.181,-0.97153,-0.28292,0.25253,0.17606,-0.18096,-0.41044,-0.053549,0.53306,0.27814,-0.56348,-1.0735,0.78808,1.6297,0.048482,-1.5582,0.38017,0.15051,-0.1811,0.7116,-0.5637,-0.64004,0.30379,0.66081,0.25254,0.073971,0.43108,0.023041,-0.002423,-1.3287,-0.63998,0.22705,-0.41053,1.0941,-1.3796,0.074044,0.83907,0.60969,0.099485,0.4311,-0.334,-1.2266,0.89018,0.17603,-1.048,-0.027993,1.5532,-0.97158,0.20164,0.099515,0.482,0.40556,-0.56344,-1.099,0.32903,0.27809,-0.20652,-0.58904,0.1506,0.27804,-0.41057,0.17609,0.53315,0.58417,-0.7931,-0.28311,-0.10445,-0.28306,0.6096,0.32899,0.20156,-0.15548,-0.46142,-0.69102,0.048629,1.9358,0.43112,-1.8896,-0.94617,0.17587,0.89021,0.32904,0.4056,-0.35937,-0.25756,0.91567,-0.81853,1.2215,1.1196,-1.609,-1.6856,-2.3742,0.35463,1.5276,1.4256,0.76261,0.09957,0.074008,-0.15555,0.12499,0.17607,-0.28289,-1.6601,-0.30851,0.53315,0.35461,0.074026,0.45656,-0.38512,0.45662,-0.51249,-0.18098,-0.63999,0.89016,2.3181,-1.0226,-3.4706,-0.74215,1.5786,1.6806,-0.18101,0.50766,0.71167,-0.053439,-0.28292,-0.35952,-0.53802,-0.2575,0.022961,0.45654,0.45648,-0.74198,-2.2211,0.074142,0.78806,1.0941,0.6606,0.38003,0.45653,0.40555,-1.3031,-0.97155,0.60963,-0.30846,-0.33398,0.73704,-0.12998,-0.38494,-0.33404,0.73711,1.1961,-0.41049,-0.89498,0.15059,0.686,-0.33396,-2.5527,0.86455,0.66055,-0.43604,-0.53786,-0.002558,2.0122,0.68616,-1.1756,-0.28306,0.048604,-0.41049,0.12504,0.50757,0.048463,0.048616,-0.436,-0.053495,0.25259,0.074069,-0.20643,-1.1501,0.073984,0.43104,0.86459,0.15053,0.35459,0.38005,0.17615,-0.38502,-0.76758,-0.3595,-0.35946,0.35454,-0.053415,0.20157,0.27797,-0.69099,-0.002418,0.27805,0.25265,-0.2065,0.58397,-0.48701,0.0485,-0.002436,-0.12995,-0.33408,0.07402,0.68608,0.96669,-0.51242,0.17612,-0.81857,0.83905,-0.35956,-1.6345,-0.84398,0.53309,1.0687,0.8136,0.58397,-2.5783,-0.895,1.094,0.27794,0.91557,-0.51244,-0.35935,0.40558,0.78809,0.8137,0.32902,0.22701,0.63516,-0.63999,-1.3286,-0.1299,-0.10437,-1.9152,0.60974,1.2469,1.196,-2.6037,-1.3031,1.2217,1.6807,0.48208,-0.027944,0.20156,1.8592,-0.07899,-2.3997,-0.76735,0.15045,-0.58904,0.15061,1.3749,0.35437,-0.86963,-0.97147,1.2727,1.094,-1.1501,-1.8386,0.30345,0.63505,-0.56347,1.1197,-0.28298,-0.48702,-1.0226,1.3491,0.58418,1.2728,0.17611,-0.15546,-0.38503,0.86471,0.073868,-2.2722,-3.1393,-1.1501,2.6499,1.8336,1.4256,0.83914,-0.30846,-0.4359,-0.92059,-0.12997,0.15062,-0.61445,-0.12998,-0.43602,0.55864,0.63509,0.60954,-0.4615,-0.18105,-0.38514,0.35456,0.48216,-0.10441,-1.201,-0.84407,0.8648,0.63501,1.3237,-1.4306,-0.69111,0.45642,0.30361,-1.0225,1.0687,0.71165,-0.51255,-0.30842,-0.76747,0.45672,1.7061,-0.92053,-1.9407,-0.15554,2.0376,0.074013,-1.1499,-0.79299,-1.1755,1.2472,0.71151,1.0942,0.60943,0.12504,-0.38501,-0.48693,-0.15541,-0.12988,-1.5583,-0.61462,1.2216,0.25262,-0.25738,0.1506,0.6351,0.6606,0.32908,-1.4815,-0.027956,0.43105,-0.97149,0.94107,1.5022,-1.0481,-0.25757,0.073855,-0.56367,1.9868,0.25265,-2.068,-2.782,0.38006,1.4001,1.2981,0.63511,-0.079002,0.25256,-0.002448,-0.30851,-0.84405,-0.51249,-0.25746,0.048506,-0.76772,-0.79318,0.50764,0.86469,0.71167,0.45665,0.15059,0.83917,-1.4052,-0.53798,-0.078984,0.45661,0.25242,-0.053586,0.22721,-2.1191,0.86456,1.3747,-0.12988,-0.86955,0.27814,0.176,0.15049,0.83908,-0.079033,-0.35947,-0.002448,0.40561,-1.0225,-0.46155,0.55861,-0.64013,0.60963,0.40558,-0.94601,0.35468,-0.6147,0.94102,0.30355,-0.10439,0.4057,-0.81854,-0.53801,0.55852,0.48206,0.20154,-0.38508,-0.078959,-0.58905,-1.3542,0.50744,0.8137,0.76263,1.2982,-2.5781,-3.2155,1.298,1.2979,1.8847,0.43113,-0.51242,0.30357,0.71165,-0.20649,-1.3541,-1.1755,0.3035,1.0686,0.60949,0.58409,-1.8386,-0.71653,0.86455,0.20153,-0.92055,0.81365,0.35453,0.68619,0.6607,0.66077,-0.94602,-0.94613,-0.71671,0.12503,-0.99706,0.25264,1.4257,2.0887,-0.69102,-1.0225,-0.94611,-0.00251,0.25259,1.0432,-0.74204,-0.20651,0.25257,0.1505,-0.6657,-0.46143,0.15052,0.73714,0.20159,0.94121,-1.252,-0.94598,-0.15539,0.073855,0.99202,0.60959,0.83919,0.20169,-0.94611,-0.38508,-0.41059,-0.028096,-0.23197,-0.4869,-0.48689,-0.25736,1.6552,1.5021,-0.61467,-0.58888,-1.5835,0.38006,0.27812,0.27807,0.30351,1.2725,0.94117,-1.0991,-1.4306,-0.84388,0.12506,-0.3341,0.99216,0.71158,-0.94598,0.53313,1.4002,0.17604,-0.13012,-0.61469,-0.63992,-0.232,0.35466,-0.027944,0.91558,0.55861,-1.048,-0.71651,0.73705,-1.2011,0.58412,0.60961,0.22708,-0.25754,0.27794,-0.05347,1.1198,-0.1555,-0.97153,-2.6547,0.3035,1.2472,2.0377,0.20153,-2.1701,0.22704,1.6808,1.1196,-0.1045,0.17609,-0.538,-0.48702,-2.5017,-0.28298,1.5022,0.81354,-0.10447,-0.20656,1.1707,0.43107,-1.864,-1.6091,0.76253,0.35458,1.4257,1.196,-1.4306,-2.3997,-0.51267,1.1197,1.5789,-0.18083,0.17602,-0.33394,0.45663,0.686,-0.13004,0.25247,-0.10445,-2.8842,-1.405,0.76255,1.1705,1.8848,0.68613,-1.3031,-0.69102,0.2269,-0.64007,1.0687,0.55859,-0.079039,-0.078843,-0.51239,0.86454,0.2015,-1.1754,-1.2011,0.25252,-0.28303,0.074093,0.91555,0.99207,1.3236,-0.46155,-0.64003,0.68607,-0.078972,-0.84409,-0.41038,0.48214,0.25267,-0.027998,-0.35951,-1.4816,0.073917,1.4767,0.227,0.32907,0.40565,-0.002436,-1.2776,-0.53804,0.12503,-0.079021,1.0431,0.53315,-0.86947,-0.79293,-0.30865,0.53291,0.3545,-0.66547,-0.33396,0.22713,1.0177,-0.13001,-0.079002,-1.1502,-0.079021,0.15066,0.3291,1.0687,-0.002485,-0.86948,-1.2777,-0.74194,0.20161,0.86449,1.1705,0.78808,0.38006,0.40558,-0.69108,0.02309,-0.28292,-0.053427,-1.4562,-0.51247,0.12502,1.1453,0.53312,-0.10453,0.17595,-0.002577,-0.51246,-1.5324,0.7371,0.71166,0.89011,0.53305,0.38001,-0.92062,-0.79304,-0.3341,0.20163,0.35464,0.60959,0.30359,-0.61456,-0.56348,0.30356,-0.25743,0.048555,-1.3031,1.2216,0.6096,-0.12998,-0.94598,-0.69112,0.30356,0.66058,0.40557,0.40563,0.227,0.38005,-1.1756,0.73712,-0.23197,-0.86944,-0.25737,-0.18105,0.81353,1.0686,-0.078959,-0.30841,0.2015,-0.86959,-0.86947,-0.23193,-0.6656,-0.10459,1.1706,1.0941,0.99211,-0.4359,-0.64004,-0.18097,-0.20655,0.25255,0.22713,-1.0991,0.22704,0.53311,-0.33409,1.1451,-0.53807,-2.9352,-1.405,0.83909,1.5277,1.5533,0.30359,1.2982,0.15045,-2.0936,-1.7111,1.6295,0.81365,-1.7111,-1.1755,0.20169,0.58405,1.0941,0.58397,0.55864,-0.71662,-0.25756,0.27815,-0.25754,-0.18095,-0.078763,-0.99706,0.099601,0.073946,-0.30855,-0.053531,1.1451,0.58415,0.53312,1.0942,0.2271,-2.5271,-2.9608,-0.053622,1.247,0.7116,0.22712,1.5788,0.58411,-0.1555,-0.63999,0.38013,0.17604,-0.20658,-1.5582,0.30356,0.099552,1.1197,0.30377,-1.6602,-0.97156,1.0431,0.27796,-0.28308,-0.61457,0.91563,0.91563,-0.027938,0.78821,-0.12996,-1.0481,-0.9716,-0.53796,0.20153,0.45658,-0.41054,1.0941,1.2471,1.3236,-0.97149,-3.4196,-0.7674,-0.38487,1.9612,1.757,0.839,0.099399,-0.10454,-0.25747,0.048683,-0.48694,-0.30846,-0.56358,0.32909,-0.181,-0.6655,-0.538,0.68608,-0.078898,-0.18103,1.7827,-0.18095,-1.7877,1.0178,2.2672,-0.10453,-1.2011,0.15057,-0.20647,-0.3084,0.482,-0.43604,-1.5836,0.94115,0.99216,-1.0481,-2.0936,1.0432,1.6808,-0.79305,0.30353,-0.2065,0.32896,1.4001,-0.5635,-1.66,0.71162,0.89019,-0.20647,-1.2012,-0.35974,0.20162,1.9102,-0.10436,-1.6601,-0.23203,1.4256,0.15059,-2.3486,0.38019,0.022913,-0.33398,-0.13003,0.66055,-0.33409,0.55859,2.1143,-0.1554,-1.3796,0.63511,0.55857,-0.43607,0.15056,0.176,-1.0736,-0.58902,0.99224,-0.92063,-1.1502,0.048463,1.6297,-0.053353,-0.18092,0.58412,0.5076,-0.028005,-0.35951,-0.10452,0.38006,-0.078972,-0.078966,-0.2065,-0.79288,-0.33411,-0.2065,0.20152,1.8082,-1.354,-1.4305,0.20151,1.1451,0.02295,-0.53817,0.27805,-0.53793,-0.76744,0.76274,0.89018,0.8902,0.58393,-0.33402,-1.6856,-0.28297,0.20155,0.48206,0.32909,0.074062,-0.79305,-1.4815,0.60952,0.4054,0.35453,0.43116,0.81364,0.023096,-0.25756,0.58412,-1.3031,-1.0482,0.58408,0.71174,-0.30836,1.0685,0.023206,-1.3031,0.53304,-0.38511,0.43108,-0.078966,-0.69099,0.20145,0.60951,-0.33402,0.78818,0.45675,-1.5581,0.25252,-1.0225,-1.0736,0.048585,1.3748,0.94111,0.48208,1.196,-0.48702,-1.558,0.63503,0.53302,-0.58902,0.35467,0.35461,-0.15546,-0.12989,-0.48697,-0.20652,-0.33405,-0.30855,-0.25751,0.38001,0.048671,0.32916,1.2726,1.4511,-0.48702,-3.3687,-0.94602,1.4257,1.6296,0.17614,-0.74209,-0.71663,0.099515,1.1451,-0.002399,-0.92047,0.94114,0.91565,-0.7675,-0.7674,0.073989,-0.002516,-0.38499,0.048512,0.68608,0.63512,0.73708,-0.71655,-1.2012,-1.048,-0.12998,1.3237,0.73716,-0.46147,1.1961,0.35452,-1.5326,-0.12994,0.40559,0.20158,0.12509,0.15051,-0.078959,-0.48705,-0.23197,0.32903,-0.2321,0.17608,-0.61449,0.4056,-0.28308,0.35461,0.15053,-0.94598,-0.002472,1.1706,-0.58897,-0.35958,0.83914,0.048598,-0.48695,-0.41052,0.40555,0.27808,0.58403,0.15056,0.30354,-0.84394,-0.94609,0.12501,-0.15547,0.2271,-0.46151,0.96669,-0.002565,-1.2521,-0.078935,0.91567,-0.078972,-0.10454,0.22702,0.48204,0.38008,0.30355,-0.12995,-1.2776,-0.15552,-0.15552,0.17612,0.20162,-0.12995,-0.23198,-0.028018,0.12504,0.25258,0.89007,-1.048,-1.048,1.0941,0.8136,-1.0991,-1.1756,0.76245,1.3748,0.27817,-0.89506,0.53314,0.58407,-0.15546,-0.66559,-0.79317,-1.2011,0.73712,-0.10449,-1.252,0.99221,0.89024,0.27801,0.78808,-0.13012,-0.3596,-0.15548,-0.51246,1.4258,-1.6346,-1.5581,0.20154,0.89007,0.53306,-0.079051,0.58419,-0.07899,-0.43606,-0.02792,-0.28282,-0.20652,0.38005,0.12503,0.55863,-0.25761,0.38016,0.55849,-0.10447,-2.0171,-0.86946,1.0941,1.3236,-0.48719,0.048415,2.0123,-1.3542,-0.99695,-0.53802,0.17599,1.1964,0.17616,0.30355,0.48208,-0.46151,-0.30861,0.38003,0.22707,-1.4306,-0.69097,0.63506,2.0633,1.4511,-1.0226,-1.3285,-1.456,0.40552,-0.35951,-0.1045,0.15043,0.86466,0.63503,1.3237,0.60958,-0.078801,-0.35945,0.023121,-1.1501,-0.84419,-0.12997,0.099619,0.048573,-0.9716,0.8136,0.20158,0.83905,-0.18097,-0.12994,0.9667,-0.538,-0.07907,-0.20652,-0.15546,0.58413,0.43114,-0.66564,0.38017,-0.25749,-0.79312,-0.12985,-0.81849,0.50761,-0.41061,0.94105,0.50752,0.5077,-0.25743,0.7116,0.30358,-1.558,0.17603,0.53309,-0.41061,-0.053568,0.50752,-0.89505,-0.84397,0.63517,0.96667,-0.30861,-1.099,-0.46159,1.6043,-0.89518,-0.69097,0.76262,0.78809,-0.002461,1.2217,-0.46153,-0.946,0.43106,-1.3033,-1.3541,0.55859,1.3238,0.2782,-0.35948,0.7116,0.12496,-1.1246,-0.48705,0.20148,0.074062,-0.25752,0.27811,-0.25746,0.48202,0.4821,0.66058,-0.33384,-0.7166,-0.33404,0.048531,0.32905,-0.79304,-0.33393,1.3237,0.60949,-0.94612,-1.201,0.53323,0.58398,0.2525,-0.23198,-0.38504,0.55853,-0.385,-0.25747,0.22711,-1.0479,-0.05347,0.22693,0.30343,1.8848,-0.00251,-0.74196,-1.303,0.71157,0.83912,-0.20658,-0.38489,-0.18103,0.074002,-0.181,-0.25746,-0.53796,-1.201,0.25259,0.278,0.35454,-0.02795,1.0941,0.43106,-1.966,-0.53811,-0.56361,1.3747,2.0887,0.68613,-1.3285,-0.61452,-1.0481,-0.15543,0.96658,0.38006,0.68613,0.43103,-0.51257,0.48214,-3.4197,-3.6748,2.0377,1.9357,1.5277,1.2217,-0.002503,-0.48714,0.099662,-0.43609,0.48212,-0.41046,-0.79301,-1.4306,0.30359,0.40558,0.27806,0.4566,0.099497,0.12504,0.023035,0.20147,0.27805,-0.58903,0.17606,0.023127,0.55862,-0.2065,0.38,-0.86945,-0.89509,-0.41053,1.0687,0.91559,0.20166,-0.86957,-1.4051,-0.07907,0.91551,0.78805,0.38008,-0.23196,0.45664,0.074069,-0.053446,-0.25748,-0.078935,-0.23201,-0.58898,-0.30852,-0.25749,0.023023,0.76251,0.15061,0.17597,0.35453,-0.053323,-1.0481,0.50759,-1.6856,0.12497,1.0432,1.4001,0.15056,0.099619,0.32906,-0.18095,-0.86955,-0.79305,0.074044,0.17601,-0.078972,0.25255,-0.053495,-0.12998,-0.41049,0.55859,0.22707,0.048506,-0.7675,-0.25755,0.43112,0.048433,0.78814,0.35467,-1.4815,-0.79292,0.048274,0.4309,0.78811,-0.053451,0.17602,0.12503,-0.10446,-0.18088,-0.18094,-0.12998,-0.28298,0.074013,-0.20651,-0.30846,-0.30858,0.6096,0.78825,-0.30854,0.023121,-0.56353,-0.48703,-0.25755,1.0432,-0.002588,1.2218,0.81349,0.83907,-0.43598,-1.3286,-0.38499,-0.28292,-0.53802,-0.43601,-0.027998,0.20159,-0.84402,0.023047,0.50755,0.73712,0.81359,-0.25751,0.048567,-0.027969,0.074013,0.023035,-0.43599,-0.20648,-0.6655,0.38006,-0.1555,-0.89511,0.22702,0.86469,0.58407,0.45662,-0.33393,-0.56351,-0.51252,-0.15557,0.073989,0.96668,-0.56368,-0.86964,0.099583,0.12519,0.25251,0.40561,0.32913,-0.71652,0.30361,0.22705,0.2781,0.3799,-0.538,-0.9206,-0.002467,0.81362,0.25258,-0.079014,-0.18108,-1.0481,-0.15545,-0.35941,1.2982,0.6096,0.3291,-0.79303,-0.76749,-0.76758,0.8136,1.0941,0.5585,0.048536,-0.66558,-0.58903,-0.33394,0.12505,0.63528,-0.46156,-1.1247,0.023041,0.48206,0.86466,0.6861,-0.51255,-0.79309,-1.0735,0.35461,0.89014,0.45654,0.20156,-0.283,-0.20652,0.76263,1.1961,-1.2266,-1.9661
