-0.079008,0.30358,0.35461,0.048543,0.22709,-0.28306,-0.30855,-0.1555,0.20163,-0.33404,-0.18099,0.2526,-0.002479,0.17607,-0.15555,0.12507,0.023047,0.20163,-0.41056,0.12511,0.099608,-0.053531,-0.10455,0.17605,0.35462,-0.20652,-0.181,-0.027962,-0.10449,-0.027956,0.1506,-0.23203,-0.027969,0.074044,-0.1045,-0.20652,0.09954,0.17607,-0.002467,0.5077,-0.2065,-0.25754,-0.002528,0.048512,0.35462,0.15059,-0.053451,-0.053458,-0.43607,-0.10447,-0.33404,-0.33405,0.50765,0.32909,0.02301,0.048543,0.2271,-0.002472,-0.12998,-0.41055,0.099595,0.48218,0.48218,-0.3851,-0.28308,-0.027987,-0.10448,-0.41054,-0.18101,-0.18101,0.048536,0.048512,-0.078996,-0.053482,0.12505,0.15057,0.25261,-0.053421,0.048585,-0.18105,0.227,0.60959,0.38011,0.25265,-0.76757,-0.15545,-0.18104,0.22707,-0.30851,-0.43596,-0.28294,0.15054,0.81356,0.58406,0.329,-0.84404,-0.51252,-0.25746,-0.51257,-0.002436,0.30366,0.55858,1.0941,-0.5635,-0.63995,-1.0992,0.78814,0.17599,0.12502,1.1962,-0.76751,0.27813,-0.3085,-1.0226,0.073928,-0.51254,1.4512,0.53311,-0.79309,-0.13,-0.38506,-1.0226,0.27827,0.176,-0.10453,0.1759,0.78808,2.2672,-1.4305,-1.303,0.8136,-0.35948,0.35465,-0.12994,-1.3287,-0.10442,0.099595,-0.61455,-1.2268,0.50757,1.1708,0.43104,0.27803,0.099448,0.5076,1.2216,0.68605,-0.58902,-0.48683,-0.63998,-0.74199,0.66055,-0.86958,1.1706,-1.1246,-2.7313,-2.3231,1.8082,1.3492,1.9612,0.023005,0.27804,-1.5582,-1.3032,1.2471,2.5477,-0.23185,-0.79299,-1.252,-2.1192,0.78817,-0.66567,-1.0225,1.0688,2.4457,1.8336,-0.71668,-1.9663,0.3802,0.60974,-0.079045,0.27803,-2.1192,-0.76725,-0.18097,0.60969,0.073892,0.53298,0.63515,-0.99712,0.048536,1.094,-0.027871,-0.23195,-0.38508,0.99211,-1.0735,-0.51247,0.58415,0.55857,0.37999,-0.43626,0.22716,0.38028,-0.86956,1.0687,0.9921,-1.8387,-1.4817,0.40566,-0.33379,-1.1502,1.2982,2.6754,-0.18103,-0.56362,-0.46153,-1.0992,-0.71653,0.12515,0.86457,1.1707,-0.10444,-0.64003,0.66059,0.96668,1.7828,0.4311,-3.7258,-1.5836,-0.74207,-0.028029,0.81354,1.7571,-0.61465,0.81391,0.22713,0.35452,-0.56356,-0.10448,0.27798,0.91577,-1.252,-0.99704,-0.69101,1.1961,1.3745,0.20151,-0.027864,-1.1754,1.1196,-2.2469,-1.4307,2.1144,1.7572,0.53314,0.22719,-0.89526,0.89014,0.7118,-0.66569,-2.9098,1.0686,-0.69108,0.02323,1.4002,-1.7623,-0.28277,0.78813,0.7116,-0.58904,-0.28312,0.76253,2.012,0.73706,-0.84402,-1.4306,2.4968,-2.0426,-4.0316,-0.56347,0.20145,1.9612,1.4768,1.8084,0.66024,-0.94625,-1.8387,-0.89488,2.4458,-0.15557,-2.5272,1.0687,-0.027998,-0.12984,-0.2574,0.88999,0.58409,1.1708,0.27823,0.17603,0.17601,-0.89542,2.0122,-2.0683,-3.0627,-0.10433,1.2982,1.7064,-0.25745,-1.4562,0.30341,1.3493,0.45647,-0.51258,-0.10457,1.5023,-0.43609,-0.64001,-0.15532,-0.61443,-0.5381,-0.64002,-0.6402,0.40553,1.2472,0.73726,-0.027913,-0.79321,0.78799,-1.1499,-1.048,1.8846,1.0941,0.22713,-0.20654,-0.56348,-0.84411,-0.25753,0.55861,0.32921,0.45652,-0.1299,0.20156,-1.635,-0.76773,0.43132,1.4514,-0.64017,-0.25748,-2.7313,-0.079057,0.048262,1.2472,3.7721,-1.3797,-1.2521,-0.84397,2.4968,-0.89495,-1.2012,-0.53814,-0.33391,2.3182,-2.4507,-1.0225,0.99227,1.7571,0.30343,1.4001,-0.30841,0.15059,-2.1702,-0.61471,0.30336,2.1145,-2.221,-2.3996,-0.69107,2.4457,0.12504,0.35464,0.83914,-0.13027,0.7624,0.48208,0.89031,-0.69083,-0.38488,-0.71653,-0.71656,-0.66561,0.27802,0.91567,0.94121,-0.97152,-0.28295,-0.79324,0.38006,0.76245,-0.10453,-1.0989,0.96664,0.20156,0.35452,-1.2012,-1.3542,0.58413,0.5842,-0.10449,0.71152,0.58423,0.099534,-0.56355,-1.0225,1.7829,1.0177,-1.2777,-0.66561,0.176,-1.15,-0.81849,0.48201,0.099485,0.3037,1.1198,0.25254,0.22702,-0.41066,-1.3799,-1.4562,1.885,0.27824,0.48213,1.0686,1.2472,-0.4106,-0.89522,-0.97166,-1.5579,-1.4304,0.45649,-0.56369,1.2727,2.1143,-0.86954,-1.5071,1.8084,3.1599,-0.25757,-2.7566,-2.5785,1.7826,-0.027969,0.35453,1.9614,-0.64001,-1.303,0.35465,-1.3542,-1.4818,0.66047,0.86465,2.2163,0.43103,0.45666,-0.8439,-0.94612,-0.15553,-0.74231,1.7575,-0.23197,-0.76743,0.3036,0.35476,0.38001,0.22712,-0.002521,0.99195,-1.3797,-2.1194,1.3746,0.71162,2.0889,0.45667,-1.9151,-2.0427,-0.58898,1.0177,2.9303,-0.18115,2.0122,-0.9459,-3.0372,-1.6091,0.45669,1.5276,0.25269,0.50573,0.42922,-0.002558,-1.3798,0.53313,-0.46154,1.8337,0.37991,-0.13005,-0.89494,-2.6037,-1.9152,0.48205,1.9358,0.4314,1.0688,0.023059,1.2981,0.15046,0.25236,0.58415,-0.027889,-0.89493,-2.604,-0.028109,-0.2573,0.81374,1.1962,0.86449,-1.2012,-1.2265,0.12521,1.2472,0.50779,-0.48691,0.68619,-0.33412,-0.8697,0.53312,-0.078977,-0.23193,0.15061,-0.41057,-0.64016,1.4256,-0.002105,-2.1447,0.86458,2.114,1.0943,-0.10406,-0.12988,-0.99726,-1.6095,0.073977,0.73711,0.86472,-0.38507,0.71179,-2.4505,-1.6346,1.3747,0.99195,0.38001,-0.3851,-1.2012,0.15058,0.17597,1.5532,-0.12996,-0.53793,-0.15545,-0.18083,-0.10453,0.38001,-0.15553,-0.66557,1.4769,-0.23196,-2.1959,-1.4305,0.94119,1.5786,0.53312,-0.18109,0.30349,0.58384,-0.23212,-0.94605,1.3493,-0.33385,-1.507,-0.25734,0.43099,1.3237,1.451,-0.81851,-2.1193,-0.53786,0.81365,0.30363,-0.35934,-0.46161,-0.7931,0.073843,0.99199,1.2727,1.2219,-1.2267,-0.28297,0.32925,0.58423,-0.97151,-0.66558,-0.53798,-1.1759,1.1959,0.60951,-1.6348,1.0432,0.66073,0.25259,1.2217,1.2984,-1.7876,-0.28306,-0.61459,-0.23209,0.27789,0.53333,-1.2265,-0.8954,-0.20654,0.86467,3.1858,-0.002479,-1.7621,-0.46139,0.40538,-1.482,0.71157,0.63511,-0.20656,-0.84397,2.0635,2.2931,0.32901,-0.64015,-1.813,-0.51263,0.048433,-0.97168,0.27809,0.09951,0.099632,-0.13009,0.12508,-0.86961,0.45648,0.074026,-0.18078,0.45654,1.1705,1.5533,-0.71659,-0.20639,-0.028018,1.1707,-1.3797,-1.1756,-1.5582,-0.74214,-0.38503,0.25263,1.2984,-0.15568,0.76245,-0.48701,0.89035,2.2166,1.9104,-0.46163,-2.1191,0.43108,0.20147,-0.89519,-1.2775,-0.97149,-0.43611,-0.53826,1.7061,1.3237,-0.61436,-3.1392,0.66074,1.2981,1.5787,0.45656,-0.30854,-0.28302,0.37999,-0.23186,-1.8387,0.22704,1.2472,-0.13007,-1.0737,-1.2269,0.099613,0.91582,-0.92072,0.66069,1.0178,2.4714,0.53301,-0.94605,-0.89509,-0.41055,-1.558,-0.43591,0.96652,0.20167,-0.53797,-0.23221,1.9867,0.023065,0.099515,-0.9461,-0.51261,-0.20636,0.48238,-0.30858,-0.66558,-1.6348,1.247,1.5277,-1.0224,-0.18103,-1.048,0.17597,-0.027871,1.1452,0.53292,0.048438,0.45661,-0.81856,2.1399,-1.2268,-1.1755,-1.9406,1.8085,1.7827,-1.7367,-1.1757,1.8849,-0.71665,0.074234,0.68593,-0.18125,0.66052,0.58403,-1.3793,-2.4252,0.7627,0.40555,0.96644,0.99216,0.27796,-0.58888,-0.5125,-0.64006,1.0431,-0.56345,-2.4508,0.55862,1.4258,-1.0481,1.2982,1.2471,-0.97161,-0.38518,-0.86962,-0.92056,1.5022,1.4512,-2.3742,-1.4559,1.3492,1.2216,0.45639,1.2726,-0.79298,-0.002338,-1.5326,0.73713,0.048647,1.0689,1.3235,-1.5072,-0.99713,-1.6092,-0.33395,-0.30839,0.40552,1.9102,0.6096,-0.053402,1.2983,-1.0992,-2.1449,1.0943,1.0178,-0.71651,0.66058,-0.13005,-1.6345,0.27811,0.30361,-0.053421,-0.25771,0.25272,1.5276,-0.25744,-2.5527,-0.79292,1.0687,1.2981,0.76242,-1.686,-0.71651,0.89056,1.0688,1.4254,0.17587,-1.1755,-1.7876,0.099637,1.2981,-1.507,0.20156,-0.46145,0.22693,-1.5329,1.0943,1.3494,0.45655,-0.41047,-0.35942,0.45661,1.2725,0.37999,0.27781,-1.7619,-0.53793,-0.51248,-0.66573,0.45666,2.4714,0.60958,0.71167,-1.4307,-0.64006,0.50776,-0.078947,1.0942,-0.94617,-0.89509,0.45664,0.074038,1.6808,-0.79311,-0.028047,0.48197,0.20148,-1.6344,-2.4251,-0.71661,0.38001,0.89007,2.5479,1.3747,2.4712,-0.56344,-1.6856,-2.8587,1.1195,1.2217,0.022986,-1.6856,-1.7876,1.7319,-0.53837,-1.9406,-0.12987,1.8083,2.3183,0.9922,-0.64001,-0.84414,-1.1757,1.0432,1.3237,-0.078966,-0.61458,-2.1447,0.074307,0.96667,1.6299,-0.5379,-2.5785,0.20141,-0.28313,0.074087,1.6553,2.0633,0.073995,0.839,-2.0683,-0.23201,-0.74187,-0.58894,0.45671,-0.41046,-0.3339,0.099601,-0.66592,-1.8896,0.89024,1.9611,0.25258,-1.2014,2.0634,-0.66548,-2.1702,1.7064,0.45656,-1.1246,0.35454,0.58402,-0.48719,0.048451,-0.58909,-1.2263,-0.12982,0.53306,1.4001,0.73719,0.30359,-2.4,1.0176,0.30378,-0.002387,0.15054,0.76251,1.1196,-0.002326,-0.28299,-1.0737,-0.25765,0.73728,-0.89499,-1.8896,2.1908,-1.1504,-1.3285,-0.15541,1.4514,0.53293,0.09957,-0.58897,0.12494,-0.25757,-0.30859,0.60982,0.60987,1.3744,-1.0737,-1.66,0.48205,0.78808,0.22696,0.60973,-0.12993,-1.0482,-0.53811,0.27816,0.15065,0.3036,1.4764,-0.10441,-0.99703,-1.8384,0.99202,1.9867,0.58429,-3.9811,-2.0429,1.3492,2.0377,0.60966,0.40553,0.60968,1.1707,-1.15,1.604,-0.61447,-2.17,-0.81847,-0.002363,2.0123,1.1196,-1.2522,0.37986,-2.9608,0.12491,0.86465,1.8593,0.73708,-0.89503,-0.92039,0.6861,0.27857,-1.5329,0.30346,0.1501,1.4002,0.68629,-1.4304,-0.7932,-0.94627,0.78825,0.86462,-0.2575,-0.25757,1.6807,-0.61462,0.76266,-0.18077,-2.5528,-0.12973,-1.0736,-0.8696,0.48204,1.6553,0.99202,1.0941,0.12503,-0.64013,-1.3286,-0.23213,-0.02809,-1.4304,-0.94624,0.22725,1.8083,0.30356,-0.28311,1.7828,-0.76749,-0.25756,0.6861,-1.7875,-2.4509,-0.28295,0.76263,-0.07899,1.7063,0.86452,1.7572,-0.3342,-0.20649,-0.74184,-1.2265,-1.2523,-1.2778,0.68596,1.2729,-0.079289,0.76296,-0.2319,-1.8642,0.60955,-0.2065,1.3239,0.9665,0.45642,-1.4562,0.25252,0.60958,0.7374,-0.63991,-0.20652,0.02295,-0.30862,-1.0227,0.68643,-0.76757,-0.079088,0.32908,0.074111,-1.4562,0.71146,0.17628,-0.18102,0.37986,-0.053544,-0.33415,-0.46161,1.5274,0.35468,-1.2007,1.4516,-1.6858,1.4767,1.1961,0.40544,-3.0122,0.35485,-1.099,-0.89516,0.73693,0.43098,1.3491,0.25272,-1.5835,1.6806,-0.1555,-0.66568,0.94122,1.1198,-0.23198,-3.5221,-0.81838,0.99241,0.63517,0.86463,0.15049,-0.079088,2.8027,-0.56369,-1.5324,-0.6911,-0.33396,0.96661,-0.027962,-0.58901,0.2526,1.3746,-1.8132,-0.43622,0.63506,1.5023,-0.15532,0.83914,0.50733,0.32913,-0.12994,-1.7111,-1.6347,-0.30845,0.43149,0.60965,1.4002,1.094,-0.35976,-1.1246,-0.81873,-0.18104,-0.078898,1.7064,2.5734,0.96662,0.074087,-1.2519,-2.3996,-0.053531,-1.3286,0.099442,3.0582,0.048286,-0.028182,1.5023,-0.76757,-1.6092,-1.4815,1.2218,1.1705,-0.61482,0.023017,1.2473,-0.43595,0.40555,-0.053085,1.2728,0.83899,-2.3999,-1.5837,-0.30831,-0.23212,1.8592,0.60956,-0.46161,-0.1048,0.99222,1.4769,-3.0117,-3.2668,1.2982,2.2671,0.43106,-0.84404,0.099546,-0.51262,0.83925,0.71158,-0.53812,-0.10456,2.2165,-1.5839,-1.3796,0.7885,0.86478,-0.79324,0.25267,0.32905,0.94117,-0.38516,0.15051,-0.56358,-0.99695,-1.2269,2.9818,1.0688,-0.58906,-0.53828,-1.9154,-1.6601,0.40557,3.3383,-0.23184,-2.2722,1.0431,1.1453,0.17604,0.55858,-0.25766,-0.15555,0.5332,-0.38473,-0.74199,-1.0736,-0.41074,0.27788,-0.38495,-0.56356,-0.30838,0.81338,2.5225,-0.74171,-1.1245,1.8846,0.15046,0.20156,0.94106,-0.002418,-0.41061,-1.3544,-0.053458,2.038,0.45659,-2.4251,-1.4305,0.30353,0.048659,1.2726,1.3491,-1.2521,-0.94604,-1.3543,1.6297,0.78819,-0.15551,-0.84412,-1.4308,0.482,0.63499,1.4514,-0.71662,-1.4051,-0.64008,-0.53811,0.22707,1.0687,0.38011,-0.46153,-0.20635,-0.23198,0.15066,0.63515,-0.84415,-0.18122,-1.0734,-0.63998,0.48209,0.86456,0.73695,-0.89513,-0.48695,0.66081,1.3493,-0.76753,-0.76762,0.8391,1.0175,-1.0738,-0.86953,0.86513,0.22697,0.3292,0.20145,-2.2977,-1.7366,1.3747,0.15011,0.099491,-0.35956,1.6044,0.4312,0.45666,0.22717,-0.3595,-0.97172,-1.7112,0.1505,1.8593,-0.10474,-0.43583,0.30349,0.99215,-0.43597,-1.0226,-0.7931,2.1907,-2.2979,-0.002051,1.1966,-0.25767,-0.86961,0.37998,0.94105,-0.53803,-0.53803,0.15058,0.86471,2.1399,-1.6349,-4.1852,1.8086,0.73719,0.50764,1.1451,1.5787,-0.30856,-2.1447,0.17622,1.0942,0.099448,-0.20669,-0.38503,0.50778,-0.61457,-0.46162,-2.2721,-1.7621,0.25255,2.1398,0.83889,-0.74221,2.191,0.38019,-1.0735,-1.0226,2.5224,-1.1501,-4.6695,0.37997,1.1704,1.553,-0.28291,-0.25726,-0.15556,0.25259,0.27803,0.27794,-0.56339,-0.58868,-2.3997,1.2216,1.8082,0.91555,-0.2323,0.32918,-1.9915,-0.35923,-0.18117,-0.30866,0.099608,0.50779,-1.0227,0.55877,1.3747,-0.18098,0.1252,0.81366,-0.5383,-0.64017,-0.30855,0.68635,-1.3286,1.5789,1.9105,0.73706,-1.7623,-0.94607,-0.078941,-0.2321,1.2218,-0.94616,2.3439,-0.002491,-0.71659,-0.64004,-0.053421,1.4001,0.074057,-1.9917,1.2727,-0.58889,-0.71625,0.81373,1.043,0.71171,-0.13014,-0.079039,-0.053531,0.22721,0.02284,-2.1194,1.3749,1.5024,-0.48703,0.02295,-0.71655,-1.4816,0.99226,-0.079191,-2.1447,-0.64021,2.2163,1.8593,1.2471,-0.43574,0.48227,-0.48722,-0.79292,-0.66557,0.022931,1.6805,-1.5071,-2.731,0.25265,1.4256,-0.25775,0.66052,0.73696,-0.28303,1.885,1.222,-0.58881,-2.0173,0.20147,0.12501,-1.0226,1.0687,0.53304,-1.5325,-0.97158,2.6498,0.22701,-0.66545,0.17612,0.43113,1.0941,-0.48714,-2.9608,-0.002448,1.1196,0.38005,1.0944,1.1451,0.17604,-0.1809,-0.53801,-0.20677,-0.81865,-0.79294,0.55859,-0.92043,-1.3795,0.94104,-0.48703,0.25268,0.63501,0.40546,1.2471,0.48191,-0.053323,-2.425,0.074044,1.4512,0.27815,-0.64004,0.99204,-1.201,-1.8387,-2.859,1.7062,2.6753,0.55866,1.3492,-0.20644,-0.94589,-0.078984,2.1395,-1.6091,-0.76737,-2.6549,1.5532,0.81352,1.8594,-0.51233,-0.97151,0.73699,0.3291,0.58414,-1.2012,1.6552,-0.64042,0.71139,-0.97146,-1.2774,-0.46145,-0.027803,0.30382,0.15051,1.2725,1.1961,-0.9461,-0.23176,-0.4871,-1.2266,-0.4615,0.86449,2.5732,-0.94604,-2.4762,2.7265,-0.28315,-1.099,0.60963,0.43093,1.3494,-1.3797,-0.35937,0.20158,1.1453,0.048518,-1.1247,-0.13024,0.15057,-0.23177,-0.027907,-0.028005,-0.079093,0.25253,-0.002454,-0.07877,-0.48736,-0.027846,-0.51241,0.074057,1.1196,0.17602,-1.2265,-0.28302,0.45654,0.20142,0.2525,0.50752,0.9923,1.0686,-2.2213,-2.2211,-0.81852,0.53317,0.022956,1.2983,-0.20653,1.094,-1.0737,1.4514,0.30364,0.73712,-3.0886,-1.3288,0.83935,0.60968,0.78812,0.30377,-0.56342,1.2981,-0.84406,-1.3285,1.145,0.48219,0.30348,-0.81872,1.3747,0.99201,0.4567,-1.4306,0.15054,0.63488,-2.8078,-2.6033,1.3492,1.8082,1.3492,-0.79306,-1.5071,1.2215,2.4204,0.2781,-0.64006,-1.7367,0.099448,0.12507,-1.2012,-0.30853,0.81371,1.3236,-1.3795,-0.71653,0.48216,-0.61451,-0.078947,2.0124,-0.33416,0.48221,0.1504,2.9302,-2.2723,-3.3944,-0.18086,-0.283,0.45666,2.5989,0.86442,-0.20655,0.91576,-0.89494,-0.38495,-0.028054,-2.0682,-0.84414,1.6806,2.2674,1.094,0.45667,-1.9406,-4.4908,-1.8132,1.655,1.2982,1.9356,1.0432,0.048506,-0.64004,-0.028103,-0.10439,0.76281,-1.7622,0.48223,-0.25736,-0.053568,-0.89527,-0.002552,-0.81846,-0.027907,0.4054,-0.4361,0.30366,0.63522,0.7881,-0.18073,0.7115,0.27797,-0.30844,-0.89521,0.12508,0.81362,-0.30849,-1.3285,-1.4051,0.3544,2.2928,-1.0482,-2.7056,0.50766,-0.46167,0.68606,1.0176,1.9359,0.66056,-0.56338,-1.5581,-1.3541,-0.43623,0.58399,1.5535,-0.10454,-0.69109,0.099595,0.81348,0.96669,-1.6857,-1.3031,-0.13012,1.5278,2.3184,-0.18082,-2.7821,-0.18099,0.96652,2.0376,-0.64015,-3.3177,-0.79302,1.2983,1.6553,1.1197,0.35465,-0.25755,-1.0738,-1.6603,0.15054,2.0379,-0.053519,-0.7929,-1.8641,0.584,0.125,3.2109,0.35451,-4.2106,-1.5837,0.32908,2.0122,1.8848,-0.23205,-0.61463,1.2726,-0.002374,-0.58903,-1.5836,-0.15543,-0.18089,0.20152,2.0121,0.83927,-3.0117,-0.81854,0.68607,-0.002565,0.329,1.0941,1.0942,0.048585,-0.51233,-0.18117,-0.66559,-1.3286,-0.66541,1.0687,1.5021,-0.46156,0.023017,0.5332,1.2983,-0.23198,-0.028029,0.66052,-0.2321,-1.0481,-2.0426,-0.79307,-0.5892,2.1143,2.5989,1.0178,-1.7365,-1.7111,-0.2066,-0.28305,0.58427,1.043,0.45649,-0.84387,-0.28319,0.76267,1.1449,0.15034,-0.71637,-1.0479,1.579,-0.20647,0.40551,0.22708,-0.58933,0.17614,-1.048,-0.25774,2.2162,-0.53794,-2.1955,-1.6858,2.1656,1.5277,0.35444,-0.25782,-1.4307,2.2932,0.074033,-0.99713,-1.3542,1.9359,-0.002546,-2.1194,-0.56327,0.43105,0.99219,-1.1243,-0.76769,1.0178,0.40553,1.5278,0.3288,-0.71679,-0.64019,0.40587,-1.2266,-0.76763,2.8027,1.0179,-2.8074,-1.8129,2.0884,0.30339,-0.81854,0.83915,0.20159,1.4256,1.3492,-0.4615,-2.2467,-1.4311,-0.027742,-0.12964,0.3802,-0.028042,1.9357,0.76263,-0.43603,0.3036,0.32886,-0.18105,-0.94606,-0.18113,-0.35945,0.81386,1.8082,-0.053525,-0.61433,-2.0937,-0.97185,-0.9207,-1.6855,0.71177,0.86449,0.73676,0.20151,0.5332,0.96686,0.76272,-0.51266,0.45654,0.048378,-1.0737,-1.1502,-2.7568,0.55891,-0.15543,-1.0738,1.4511,2.7774,-0.28278,-1.6853,0.60951,0.86447,1.0685,-0.1045,0.32899,-2.2211,-1.8385,1.375,0.37992,0.32895,-0.48714,-1.8897,0.048543,1.1452,1.145,0.35456,0.48226,0.25272,-0.48705,-0.078953,-1.7622,-0.23202,0.22698,1.8848,0.43112,-2.3231,-0.61456,-0.25758,0.60949,1.8592,0.27824,0.17612,-1.5837,-0.15535,0.68608,1.1195,-0.84399,0.3035,-0.35969,-0.078959,-0.053335,-0.53785,-0.66587,1.1195,-0.69095,0.22713,-0.20634,1.0433,-0.41051,-1.5073,0.60965,1.8847,-1.2011,-0.027925,0.073812,0.8136,-0.28308,0.89017,0.20158,0.63524,1.7063,-0.4871,-2.9609,-1.7875,-0.25729,0.68612,-1.4564,1.0939,1.0432,0.89024,0.17617,-0.8185,1.5277,-1.0484,-0.84422,0.60965,1.0178,-0.053611,-1.0223,0.048683,-0.33404,-1.0481,-2.1193,-1.0227,3.7465,1.9102,-1.2774,-0.35959,1.8846,-0.86946,-0.053513,2.0123,-0.99715,-1.8132,0.53321,0.30377,-0.56369,-1.2268,0.60955,1.1707,-1.3032,0.048585,0.66059,0.53309,-1.8639,-1.7876,1.9103,0.55844,0.3035,0.584,0.63529,-0.25728,0.76261,-1.8644,-0.895,0.17604,1.4258,0.96672,-1.4308,0.25257,-1.4307,-0.92031,0.86482,0.99207,-0.028152,-0.41063,-1.2012,-0.002491,0.3291,0.40581,0.15054,1.1962,0.40562,-1.5582,-2.1446,-0.10452,0.50748,2.0632,-0.691,-2.0937,-0.18112,0.96656,2.2163,0.30376,-0.23181,1.0431,-1.3287,0.12515,-0.43616,1.1199,-0.92061,-2.0173,0.50758,0.30371,0.5587,0.099515,0.20156,0.40548,0.20141,0.22684,0.20159,0.91572,-1.1501,-0.35906,0.15075,1.4767,-1.2267,-0.58908,-0.053544,0.50754,-0.1299,-0.05358,-0.74221,0.55883,-0.94595,1.2215,1.2726,0.60944,0.43106,-0.41049,-0.84406,-0.00243,-0.66547,-1.1758,1.171,-0.89472,-0.18091,-0.13009,0.71163,-0.13013,0.12485,1.5021,1.0431,-1.0481,-1.7879,-0.002149,-0.99699,0.17616,1.0177,1.0685,0.96657,0.15055,-0.69118,-2.4253,0.81394,1.4513,0.15055,-2.1447,-0.86959,-0.13021,1.9869,-0.028127,-0.51267,-1.456,-1.1498,1.4002,1.6296,-0.71651,0.53318,0.12494,-0.33416,-1.2012,-0.053482,0.58416,-0.1298,-0.71648,0.12502,0.55852,-0.538,1.3748,0.20159,-1.2521,-0.28305,0.55856,0.4057,-2.145,0.38025,1.1198,0.68622,-0.58906,-0.58903,-0.53818,1.0431,-0.30823,-0.027901,-0.46157,-0.18103,0.12491,0.45658,0.50777,-0.002516,0.38013,0.20149,0.099485,-0.18098,-0.4359,-1.099,-2.0939,0.048427,1.8847,0.32891,1.1202,0.53311,-0.027998,-1.5326,0.91581,-1.788,-0.6404,1.9103,-0.1556,1.6046,0.27822,-0.66554,-0.99734,-1.0226,-1.3539,-0.20623,0.1759,0.96664,0.50744,0.63517,0.71155,-1.2522,-0.10464,-0.84418,0.43121,1.7576,-0.13011,1.2984,-2.1448,-1.252,1.2983,-0.99724,-1.3543,0.1505,3.0578,0.32915,-2.0936,-3.012,2.9816,1.2471,-0.15563,0.71173,0.96669,-0.20654,-1.3032,0.89032,-1.1245,-2.1193,0.50764,0.35461,-0.053525,0.48211,1.9867,-0.10437,-0.94609,-0.48699,0.76265,0.02298,-0.43604,0.53298,1.9356,0.15055,-1.0226,-0.63993,-0.078825,0.43103,0.15045,-0.97156,-0.30854,0.048494,0.50766,-0.53803,0.022883,0.15064,-0.4869,-2.4251,2.7009,1.4511,-0.89537,1.3493,0.25253,-0.10464,1.0687,-0.35939,-0.84403,-0.25739,-0.25749,-1.6604,0.30363,0.43112,0.43107,-0.41063,-0.51262,0.9412,-0.56339,-0.35966,2.0887,-0.94597,-2.7057,0.25243,1.6298,0.58414,-0.99706,0.78812,0.20146,-0.028011,0.76258,-1.2775,-0.25742,0.60955,0.099552,-0.51246,-0.81865,-0.38513,0.94121,1.0687,0.27815,-1.201,-0.2066,-0.15544,-0.4617,1.1453,0.48209,0.60967,-0.94632,0.60974,-0.38499,-0.436,-0.079057,-0.13011,0.38003,-0.53803,0.2526,0.81378,-0.56358,0.074044,-0.35954,-0.64018,0.12513,1.1707,-0.053427,-0.56346,-0.92063,-0.46147,-0.9206,2.0889,0.048415,0.78821,-0.2575,0.63503,0.53312,-1.2265,-0.79308,0.27808,-0.10458,-0.30854,-0.12994,1.2472,-0.79312,0.17609,-0.078935,-0.89513,0.30366,0.60965,0.25257,-0.181,0.81388,-0.20651,-0.64039,-0.66557,-0.92063,2.3184,0.50769,-0.30853,-0.56339,1.0432,1.4002,-1.1246,-1.6856,-1.4562,-1.7621,0.68615,1.2215,2.0887,1.4767,0.22696,-0.33396,0.4058,0.6097,-0.18101,-2.3998,-1.3287,0.04858,0.22701,-0.43587,-1.1755,1.5533,1.7061,-0.76764,-0.10456,1.1196,1.4768,-1.3797,-1.2264,-0.23187,-0.027969,-0.38516,0.30353,0.83924,-0.079057,0.17598,-0.48696,0.3546,-0.84405,-1.2265,-0.84439,0.2271,-0.00257,2.2164,0.86467,0.048555,-2.0427,-1.7365,-0.79302,0.20158,0.89005,1.4512,0.60947,-0.53803,0.048585,-0.12988,-0.48695,0.66067,-0.51263,0.32906,-1.0737,-0.33421,-0.15538,0.023114,0.25256,1.1196,0.40566,-0.51255,-0.079002,-0.027876,0.2271,-0.13006,-0.10457,-0.94608,-1.5328,-0.53803,0.96676,0.89041,0.50749,1.4766,-0.86953,0.22712,-1.0993,0.63517,0.78804,0.76256,-1.1501,-2.5526,0.3802,0.45667,1.7063,-0.56347,-0.13009,-0.97187,0.81356,0.99215,1.1709,0.50778,-1.5836,0.022986,-0.28308,-1.9917,-0.71666,0.9157,1.1961,0.91565,-1.0735,-0.33406,-0.35946,-0.053366,0.71158,1.6042,0.12494,-0.86966,-0.5637,0.81369,0.66071,-1.2521,-1.6856,0.17634,1.2216,0.81343,-0.58928,-0.053311,-0.7931,-1.7113,0.53317,0.38027,2.3693,-0.81839,-2.7313,-0.51272,1.5275,0.35441,-0.43611,2.4719,0.023035,0.12502,-0.20674,-1.2521,-2.4762,-0.46143,1.7571,-0.028139,1.63,0.27824,2.7266,-2.1194,-2.9868,0.89031,1.6806,-0.84395,0.02339,-0.58901,1.4766,2.0631,-0.99703,-1.3031,-0.46164,1.6044,0.99195,-0.946,-1.9917,0.22709,0.35435,0.35464,-0.48694,1.5278,0.63505,-0.86958,0.48231,-0.10455,-0.46147,-1.9151,0.86461,0.02298,-2.2469,0.63503,2.2674,2.0888,-0.38494,-0.48694,0.35456,-0.078966,-0.46162,0.17611,-0.53793,0.12512,-0.078953,-0.7165,-2.0936,-0.18106,-0.25759,2.0375,1.8082,-0.46145,-0.56336,0.38006,0.48208,0.099479,-0.02792,-0.56355,-0.41072,-0.51255,0.099962,-0.2575,2.0122,-0.81851,-0.12993,-0.385,1.3746,-0.33401,-1.4052,-0.58907,1.2726,0.482,0.38003,-0.51243,1.1709,-0.20628,-1.2775,-0.028005,-0.41065,0.25244,0.96659,-0.92054,1.7318,-1.2266,-1.1756,0.22712,1.5534,0.66052,-0.13017,0.023103,0.17602,-0.4613,-0.97166,0.43113,0.96669,0.15051,-0.66566,0.023041,-1.0736,-1.3287,0.96663,-0.436,-0.58908,0.83923,0.074033,0.22693,1.1707,0.2782,-1.4818,-0.10431,0.022919,1.4001,-0.28308,-0.946,0.25265,0.022998,-0.15557,-0.79293,-1.2011,-0.23199,0.38016,0.5331,0.89008,-0.13012,0.40559,0.023072,0.58413,-0.28302,0.30357,0.40563,0.73727,-2.0171,-0.94614,0.63503,-0.41052,0.96664,0.55865,0.073953,0.30355,0.38006,-0.58891,-0.89491,0.15049,-0.84407,-0.33396,0.38005,0.60954,1.2727,1.0431,-0.71652,-1.0225,-0.002607,-0.33396,-0.053366,-0.3595,0.68611,-0.3086,-0.38503,-0.079045,-0.33401,-0.89519,0.12505,-0.35948,0.43114,0.50761,0.91562,0.20153,-0.38494,0.25247,-0.18094,-0.84401,-0.76754,0.60968,0.074008,0.17604,-0.30846,0.1251,-0.30844,-0.078941,0.20147,0.12499,0.81366,0.66058,-0.74215,-0.7675,0.53328,-0.028152,0.5076,-0.69091,0.48211,0.32904,-0.84411,-0.2066,-0.51251,-0.002405,0.023194,0.27798,1.196,0.78814,0.45664,-0.027827,-2.2467,-0.38492,-0.053513,-1.7368,1.5279,1.4002,0.15049,-0.51254,1.4002,1.1706,-1.2266,0.074216,-0.51245,0.074234,-0.46169,0.12495,1.1195,-1.5836,-0.6655,0.73706,-0.05347,0.63521,0.30363,-0.053366,-0.51248,0.099528,0.63503,0.86444,-0.002577,-0.53792,-1.1754,-0.66556,-0.38505,1.0687,0.45659,0.58407,-0.25741,-0.43614,-0.25745,0.12504,-0.23193,-0.18097,-0.23206,-0.002521,-0.30844,0.60961,0.2782,0.50751,0.30336,3.1346,-0.53806,-1.1499,-1.8387,0.073989,-0.94607,-1.9919,2.0377,0.73725,-0.20635,-0.28306,-0.028207,1.0686,0.63503,-0.6908,-0.35945,1.5531,0.12501,-2.2212,-0.2829,0.12516,0.71162,1.3237,0.81353,-3.0373,-3.3434,0.71171,2.0634,1.2471,1.0687,-0.81845,-0.63998,0.53302,0.40545,-0.5125,-0.23198,-0.053562,0.023059,-0.66561,1.12,-0.053562,-0.10445,-0.43605,-0.10453,-0.028018,0.227,1.0431,-0.99691,0.048567,-0.74206,-0.56348,1.3235,1.0433,-1.0734,0.12509,-0.43606,-0.078966,0.94109,1.3491,-1.4052,-0.69096,0.63511,-0.89502,-0.002443,1.1707,1.2216,-1.1246,-2.4507,-0.94619,1.5534,1.9358,-0.74216,-1.2524,0.074124,0.27807,-0.81853,0.63533,-0.12989,0.12504,0.45656,0.43093,-0.58924,0.074246,-0.078923,0.40561,0.50759,-0.41046,-1.4309,1.5279,-0.078977,-2.1191,-1.3541,1.1706,-0.18101,0.43098,0.81366,0.60955,0.25238,0.68605,-0.71646,0.32934,0.1762,-0.18098,-0.5636,-0.64003,-1.1502,-0.38503,0.76263,0.83916,-0.30847,-0.64005,1.4003,0.25246,-2.5784,-0.94579,0.17615,0.68601,2.2163,0.17608,-0.41059,0.2271,-0.2321,-0.9207,-0.35952,0.60977,1.0179,0.22707,-0.61441,-0.86964,-1.6857,-0.079002,0.7372,0.58416,-0.3852,0.27791,0.48214,0.55878,1.0431,-1.2011,-0.053568,0.023041,-0.2064,0.099503,0.27809,-1.2777,-0.41051,1.7319,0.20153,-0.89526,-0.053616,0.38,-0.23205,0.81384,0.023206,-1.0992,0.12488,-0.15535,-1.6858,2.2675,0.22715,-0.89509,-1.3287,0.15052,0.83914,0.89022,-0.20653,0.48197,-0.4873,1.0941,0.86474,-0.56334,-2.1446,-0.002387,-0.23207,0.40555,0.15044,0.27789,-0.23188,-0.079014,1.2217,1.3237,-1.6346,-1.6855,0.27811,1.1197,0.94114,-2.0175,-0.56359,1.3493,-0.1045,-1.1756,0.43118,1.3492,0.83909,-1.4818,-0.35943,-1.1501,0.048567,0.68608,0.48209,-0.66552,1.0941,1.8848,-1.5836,-1.8897,-0.3851,0.17598,0.45661,0.55859,0.66055,-0.33394,-0.23207,-0.28306,0.63517,0.22715,0.048622,-0.48713,-1.2522,-0.8183,0.15059,3.0322,0.099588,-3.3433,-1.0481,1.1962,2.1907,0.83898,0.55854,-0.002363,-0.48702,-0.18101,0.022986,-0.25748,-0.58892,-0.89502,-1.099,0.40555,-0.79314,-0.15538,0.53311,0.9921,0.91559,0.68617,0.17604,1.0942,-0.56363,-2.5274,-0.56353,0.66059,0.43104,0.58411,0.07416,-0.43597,0.15058,0.6861
-0.002491,0.023035,0.023035,0.2271,0.45665,0.074062,-0.25753,-0.10449,-0.12999,-0.25748,-0.33401,0.048549,0.07402,0.15054,0.25256,0.4311,-0.18099,-0.1555,-0.12998,-0.25748,-0.15548,-0.10445,0.15057,0.38006,0.20156,-0.10448,-0.053482,-0.12998,-0.28298,-0.18101,-0.1045,-0.053482,-0.002461,0.074038,0.55864,0.023047,-0.027956,-0.078984,-0.23198,-0.13,-0.002479,-0.15551,-0.18101,-0.1045,0.09957,0.25257,0.38011,0.25258,0.048555,-0.027969,0.074038,-0.053464,-0.30849,-0.43603,-0.18101,0.17609,-0.027993,0.20155,0.12505,-0.002479,-0.18098,0.048567,-0.1045,-0.33402,-0.12999,0.09954,0.32905,0.074087,0.15055,0.023054,0.074033,-0.35951,-0.15548,-0.053476,-0.002485,0.12504,-0.078966,0.22706,0.12506,0.048555,-0.027944,-0.12998,-0.078966,-0.20646,-0.15546,0.099521,0.099528,0.25255,0.023059,0.2526,0.099546,0.27806,0.17606,-0.181,-0.1045,-0.28298,-0.078923,0.15056,0.048561,-0.053476,-0.23201,-0.2065,-0.35953,-0.13003,0.38011,0.20156,0.27806,0.023047,-0.18098,0.17604,-0.02798,-0.20647,-0.18096,0.32909,0.38006,0.074013,0.20155,0.17608,0.17609,-0.07899,-0.25753,-0.38503,-0.12995,-0.28301,0.048518,0.17606,0.20159,-0.078972,0.048573,-0.20647,-0.33409,0.2526,-0.10449,0.27805,0.15053,0.17605,0.25258,0.32909,0.023035,-0.283,-0.53806,-0.334,-0.12997,0.25263,0.023029,-0.027987,-0.002485,0.02301,-0.027987,0.023054,0.074044,-0.02798,-0.027969,0.023065,0.048536,0.099546,0.023029,-0.2065,0.074062,0.023047,-0.18101,-0.13002,-0.15548,0.32915,0.50766,-0.28306,-0.33407,0.20163,-0.15553,-0.053525,0.07402,0.099588,-0.25746,-0.30853,0.45665,0.20156,-0.053506,0.048549,-0.078996,-0.053458,0.048543,-0.25749,-0.283,0.074038,0.25255,0.22707,0.048525,-0.027969,0.023059,-0.181,-0.027969,0.12508,-0.12999,0.1506,-0.13004,0.22712,0.27808,-0.41051,-0.10449,0.22708,0.074038,-0.48704,-0.38503,0.15052,0.07402,0.40563,0.35458,0.53312,-0.078996,-0.58904,-0.89509,-0.43598,-0.002418,0.25254,1.1197,0.27801,0.45668,0.074026,-0.18103,0.048561,-0.61457,-0.86948,0.2526,-0.18104,0.073965,-0.48696,-0.51254,0.20149,0.48214,0.3035,0.7627,0.15057,-0.00251,-0.86956,0.12506,-0.28295,0.048543,0.27803,-0.385,-0.20649,0.50755,0.91559,-0.41042,0.27812,-0.053451,0.023072,0.20152,-0.35946,-1.1756,-0.41061,-1.1245,-0.56352,0.86461,0.5841,1.2471,-0.13005,1.0941,-0.89504,0.22705,0.8901,0.60978,0.94144,-1.9918,-1.5328,-1.099,-0.48717,0.78802,1.1961,-0.20652,2.0634,-2.0173,1.9107,-1.4816,0.482,-0.028103,-0.43596,-0.53834,0.71149,0.5586,-0.053378,-0.79314,0.89024,0.48209,-1.1755,0.76272,0.25264,0.45647,-1.3797,0.27796,-3.0883,-1.1757,1.6809,1.1706,1.2217,0.53315,0.55879,0.30357,-0.53805,-2.1449,-1.0992,-1.2012,-0.28301,1.6808,2.905,0.66062,-0.10447,-0.71656,-0.53774,-0.56339,-0.23209,0.25229,0.22702,-1.2776,-0.97168,-0.30851,2.2672,0.099528,-2.8587,0.20165,1.9357,1.0942,-0.28298,0.94112,-2.1447,-0.56332,0.25259,1.8593,0.83914,-1.3542,-0.38508,-1.2522,-1.2522,0.09976,-0.63989,0.76249,0.7114,0.60968,0.022937,-0.56361,0.66059,-0.38482,1.2727,0.022845,-3.1139,-0.8442,-0.30849,2.191,0.83922,0.40571,1.5022,-1.3798,-0.69085,0.86469,0.25255,-0.66556,0.22706,-1.0227,0.48189,-1.3797,-0.92045,1.5788,0.48209,-0.69105,-0.63993,-0.23188,0.073922,2.0125,1.7063,-1.6602,-1.4564,-0.053299,0.73712,-1.2777,-0.86959,0.12513,0.50754,0.99217,0.50749,-0.23198,-0.10439,-0.28294,-0.61456,0.48214,-1.0992,1.3236,0.45656,-0.66547,-1.5836,0.78824,-0.56347,-0.64006,0.12494,0.81371,0.099699,-0.6913,1.043,-0.15559,0.25266,1.4004,-0.30851,-0.23177,-2.2725,0.30368,0.17597,0.48218,0.32899,-0.20648,0.048536,-0.3851,0.27812,-0.53808,-0.30856,-0.053476,0.78827,0.27798,0.32906,1.6299,0.68629,0.048494,-1.5582,-3.1902,-2.2978,-0.18107,-0.028176,0.96642,1.7574,1.0688,0.022974,0.99214,-0.35961,-0.15538,-0.71666,-0.13001,-0.25749,0.68624,0.25248,0.04836,-1.2776,-2.1701,0.048702,0.22684,0.91569,0.25243,-0.51276,1.63,-0.002203,1.732,0.27795,-1.2014,-3.4711,-1.3032,1.1964,1.1452,-0.99707,0.4311,0.91567,1.0179,-0.79303,-1.6349,0.32929,-1.6858,0.89029,1.0431,0.89021,-2.043,0.40564,0.94118,0.48217,0.431,0.71149,-1.2011,-0.64004,-0.30843,0.71166,0.35452,0.048525,-0.078941,0.53332,-1.3033,-1.8135,0.17623,-0.33406,0.48234,0.89042,0.60957,0.40544,-0.18114,-0.97179,1.0177,-0.84414,-0.92086,2.293,-0.12985,-1.0737,-0.002521,-0.30842,-0.59084,-0.84586,0.30171,0.046696,0.15073,-0.33421,1.0687,-0.15567,-0.25773,0.20176,-0.97138,0.27814,0.55845,0.099546,0.50756,-0.76759,0.50755,-0.71664,0.17601,-0.64018,0.023359,-0.25707,1.8339,0.15037,-2.2215,-1.0227,1.0686,1.8083,-1.7112,-1.6856,1.298,1.0686,-0.48697,0.20139,-0.6146,1.5024,-0.69105,-1.4562,-0.1299,-0.81862,0.78818,1.0688,-0.3085,0.45683,0.4567,0.25254,0.30338,0.22691,-1.9919,-1.9663,0.4056,1.8086,0.32927,-0.94609,0.099326,0.12491,0.073953,1.3494,-0.8185,0.25278,-0.28309,-0.69121,-0.002546,0.60968,-0.3851,0.45657,-0.6655,0.50783,-1.1758,-0.66569,1.4767,-1.1501,1.4004,-1.1503,-0.30858,0.86458,0.68615,0.38013,-0.76744,-1.2521,-0.81866,0.074375,1.1452,0.58402,0.66051,0.1504,-0.30863,-0.28286,0.17607,-0.74205,-0.33417,-0.89518,0.68625,0.8136,2.2675,-1.1756,-4.134,-0.4872,2.8541,1.2729,-0.56367,-0.18109,-0.69101,0.30364,0.91549,-0.18122,-1.7876,-1.4306,-0.00224,1.9106,1.4766,1.8592,-1.1759,-0.3596,-0.027748,-1.0737,0.2526,-0.18105,0.40565,0.53318,-1.6859,-0.53812,0.55863,0.86499,0.35464,-0.51264,-0.027876,0.66064,-0.46162,-0.71676,0.27812,0.32908,0.25252,-0.76749,-1.1502,0.68617,1.0941,0.71162,0.60946,0.20163,-0.94616,-0.4614,-0.3339,-0.33403,0.86483,-1.5072,1.4769,-0.43609,-0.86974,1.5279,0.58403,0.32897,0.27808,-1.0738,-0.53813,-0.56344,-0.41036,-0.12987,0.25252,0.73727,0.58428,-0.79321,0.099503,0.63501,0.53315,-0.30846,-0.2574,0.30347,-0.33419,-0.38506,0.023108,0.71174,-1.0991,-0.4105,0.40565,-0.18106,-0.18078,0.58402,0.8136,0.73712,0.15042,-0.35951,-1.0992,0.68624,-0.48691,0.048732,-0.28305,-0.94627,-0.25723,1.0179,0.45669,-1.0483,-0.46178,0.66048,0.27796,-0.46164,-0.053544,0.60965,1.1199,-0.71653,-2.6038,0.86486,0.04836,0.43099,-0.053482,1.0942,-0.9971,-0.12995,-0.43612,-0.38508,0.074075,0.584,-0.28292,0.17631,-1.0991,-1.1756,1.1197,0.9155,1.4001,-0.2067,1.1708,-1.3032,-2.0682,-0.86948,0.35451,0.63517,1.0944,0.6861,0.35458,-0.9207,0.99215,-0.51254,0.30356,-0.92068,-0.43595,-0.25756,0.71175,0.38016,0.32904,0.30353,-0.41055,-0.86978,-0.027944,-1.0988,-1.0478,1.1449,1.4,0.58398,-1.2523,-0.33401,-0.5125,-0.64015,1.4258,0.43123,0.30368,0.30376,-0.71663,-0.61454,-1.4561,-0.46176,1.5789,0.55861,-0.2321,0.12495,0.48206,-1.1247,-0.43595,-0.46158,0.27805,1.0944,1.3238,-0.436,-0.56369,0.5076,-0.18097,-1.099,-0.25755,-1.7625,1.5279,1.6042,-0.002448,-0.79309,0.17612,0.66062,0.38025,-1.4816,-1.4052,0.482,-0.7168,1.2982,1.2217,0.17615,-0.30854,-0.027822,-0.92063,0.58413,-0.61437,-0.46151,0.099473,0.35453,1.0688,0.023065,-0.92062,0.63501,0.32915,-0.8441,-1.7626,0.43112,1.936,0.45675,0.55858,-0.18115,-0.15544,-0.56336,-0.002472,-0.18109,-1.3541,0.15054,0.81363,0.71168,0.58403,0.17606,-0.33402,-0.79293,-0.1556,-0.38494,-0.69111,-0.99698,0.17607,1.4255,-0.10443,0.43102,0.023023,0.71158,0.81379,-1.1758,-0.43588,-0.28295,0.074111,0.12504,-0.74211,-0.002479,0.35452,-0.053353,0.22689,-0.48716,-0.28292,1.1198,0.2016,-0.43602,1.2219,-1.1502,-0.76783,0.78828,-0.41054,-0.35936,-0.69101,0.099637,0.68605,0.83911,-0.02806,-0.15551,0.27825,-0.71665,-0.20653,0.40564,0.25248,0.48228,-0.30846,-0.63993,-0.23204,0.27809,0.099461,-0.43599,-0.23184,0.48224,0.73709,-0.10458,0.073977,0.40544,0.023328,0.27801,1.6042,-0.13004,-2.374,-2.3235,0.68599,0.15051,1.0942,2.0125,-0.4107,0.17612,-0.28317,0.15053,-1.0482,0.53346,-0.15534,-0.18105,-0.15561,-0.84425,1.5025,0.30349,0.30373,-0.53797,0.38003,0.22691,-0.64004,-0.46154,0.073855,0.32907,-0.43607,-0.4358,-0.15543,0.048469,1.0687,-0.027889,-0.51234,-0.079106,1.2728,0.89007,-0.94619,-1.0482,-0.58929,1.0687,0.76283,-0.25736,-0.43598,-0.64013,0.45672,0.15057,-0.66573,0.32899,0.25252,1.0432,0.074069,-0.07891,-0.33398,-0.89513,-0.23208,0.048469,0.99239,-1.4562,0.25257,0.35453,0.12502,0.15066,1.3493,-1.0735,0.71163,0.83901,-0.23214,-0.97165,-1.048,0.58414,0.35449,0.38006,0.22718,-0.97169,0.074062,-0.35945,-0.053598,-0.79307,0.20165,1.4259,-0.23197,-0.48719,0.27805,-0.97155,-0.56363,2.3694,0.73701,-2.043,-0.76748,0.43118,1.0944,-0.38508,-0.58876,-1.9659,0.6606,1.6553,0.50731,0.073861,0.35455,-0.053421,-0.79313,-0.28299,0.53314,-0.15551,0.048561,0.25262,-0.58901,-0.12994,0.71156,1.1962,-0.20636,-0.20644,-0.5125,-0.38503,-0.89518,-0.6146,0.50755,0.9156,1.1198,-0.71658,-0.48713,-1.4563,1.6044,0.099613,0.32908,0.40538,0.83916,0.25265,-1.6858,-0.58898,-0.56338,0.099564,0.35461,1.1965,-0.84417,0.6862,-0.35952,-0.002546,0.15038,0.99204,0.30344,-1.7878,0.50771,0.17614,-0.002314,0.22716,-0.66554,-0.25749,0.91559,-0.61462,-0.12995,0.48214,-0.10453,0.27804,0.22719,-0.25748,-0.48716,-0.41066,-0.181,1.1708,0.2781,-1.1246,-0.35942,0.20155,0.66054,0.66061,-0.79305,-0.23199,0.022937,0.7373,-0.18098,0.1251,-0.64004,0.048463,0.4311,-1.3287,1.4514,0.94113,0.83902,0.43107,-0.92063,-1.6348,-0.15546,-0.64014,1.8595,0.32914,-0.48705,0.4056,-0.05347,0.25242,-1.4563,-0.23193,1.6808,0.55869,-1.0481,-0.61462,0.66066,0.76267,0.25263,-0.28301,-0.13013,-0.5892,0.12507,0.099613,-0.38498,-0.002369,-0.28292,0.55866,0.09951,-0.334,-0.002356,-0.92068,0.81359,-0.13,0.22712,-0.23217,0.73715,0.43112,0.63512,-1.2011,-0.15534,-0.18103,0.176,0.94126,0.68613,-1.0481,-2.7314,0.48215,1.0686,1.0178,0.023065,0.35468,-0.61458,0.022956,0.17592,-0.92059,0.048659,0.023059,-1.0227,-0.25731,0.12484,0.43104,0.278,1.3493,0.43129,-0.742,-0.58922,0.27812,-0.43605,-0.002479,0.38014,0.58414,0.17598,-1.8643,0.02317,1.4513,0.7117,-0.43604,-1.2523,-1.8645,0.91575,0.89035,0.35481,-0.38484,0.86464,0.20139,0.048463,-0.58908,0.278,0.50747,0.48204,-0.10422,-1.15,-1.4815,-0.028066,0.55832,1.3493,-0.10449,-0.002546,-0.56351,-0.84399,0.58411,-0.58911,-0.23196,0.99218,0.58409,0.15056,-1.3286,-0.20665,0.94128,0.07391,0.91566,0.074258,-1.1246,-1.6348,0.2269,0.32899,0.43122,0.30372,1.4003,0.12494,-0.30833,-1.2265,0.30373,-0.1301,-1.2013,0.15043,1.5277,-1.1247,0.50758,-0.027913,0.53327,0.58419,-0.33421,-0.74223,-0.10451,-1.3541,0.17609,0.45674,0.50762,-0.79286,-0.43607,0.83913,0.35434,0.27791,1.8337,-1.0736,-0.81859,-0.15535,-0.25743,0.99217,-0.33409,-1.1247,-1.0226,0.2273,-0.48702,0.50762,0.20155,-0.28305,0.45657,-0.053506,-0.078898,0.048342,-0.46148,0.73716,0.55867,0.0741,-0.10447,0.023023,0.048427,-0.002472,-0.7675,-0.94605,-0.7165,0.20151,1.2472,-0.30844,0.81375,0.71148,0.30352,-1.4816,-1.6346,0.45661,0.48206,-0.13001,0.32905,0.048567,-0.7165,1.1707,1.1196,-0.1554,-1.3543,-0.53799,0.074142,0.023072,1.1965,0.45656,-1.8643,-0.58898,0.40552,0.125,-0.028096,0.32904,0.76265,-0.41067,0.048683,0.17624,0.45664,-0.94606,-0.53822,0.50751,0.099583,-0.18103,1.1708,-0.2066,-1.7622,0.099675,0.53317,-0.002485,-0.79336,-0.027969,0.83914,0.074075,0.17617,0.78805,-0.1043,-0.48678,-1.4309,-0.078996,-0.56369,0.60959,1.5786,0.63507,-0.89504,0.73735,-0.69108,0.3035,0.32912,-1.1755,0.5076,0.45654,-0.69105,-1.2778,-0.92058,0.86474,1.9104,0.8648,-0.23205,0.073898,-1.1757,-1.4816,-0.51258,0.048536,0.48201,0.12504,1.1708,0.048506,-0.10436,0.27817,-0.92058,-0.56373,-0.078977,0.048598,0.96674,-1.1246,-0.71662,0.22705,0.78811,-0.079118,-0.66564,-0.25733,-0.23195,0.86458,0.99226,0.45675,-0.23197,-0.25772,0.32899,0.58398,-1.66,-0.3595,0.048561,0.048567,0.099559,-0.35971,1.0942,0.099583,0.048518,-0.2575,0.22712,0.12505,-0.79301,0.32906,-1.0736,-0.232,1.0432,0.50755,-0.74203,-1.0482,0.45652,1.1707,-0.10449,0.6862,-0.30835,-0.63998,-0.38506,-0.33385,0.63506,1.2216,-0.92065,-0.71652,-0.94614,1.0431,-0.38481,0.45651,0.94119,-0.58919,0.048727,-0.6655,0.89029,0.073898,-1.15,0.22711,0.73703,0.38016,-0.28307,-1.4307,0.96665,-0.027907,1.502,-1.2266,-0.15528,0.58415,0.53315,-1.0992,-0.66563,1.0942,-0.51253,-0.30832,0.71163,0.68598,-0.5125,0.023023,0.25246,-0.66554,1.3493,0.48202,0.58435,-1.8898,-0.61452,0.91562,-0.35945,-1.1247,-0.053348,1.0177,1.1962,-0.84421,0.17604,0.4821,0.43113,-0.027626,-1.6093,0.30334,0.22735,-1.2012,0.73725,1.2982,-0.43612,-0.23207,-0.51243,0.99227,0.048549,-0.30863,-0.92072,0.27812,1.1709,0.35472,0.30355,-0.1811,0.96652,-0.20653,-0.8186,-0.15539,-0.53806,0.50754,1.1197,-0.1044,-0.41058,-1.303,0.20159,0.2524,0.73718,0.02301,-0.79304,-0.30851,0.32895,0.17596,-0.33399,0.2782,-0.38513,0.48222,0.25258,0.099588,-0.61456,-0.33402,0.68613,-0.078972,-1.3796,0.12496,0.20145,0.099497,0.12513,-0.99709,2.0888,-1.0991,-1.2265,0.074136,1.043,0.50755,-0.13007,1.1451,-0.69104,0.38025,-0.30831,-0.51257,-0.41059,-0.13012,0.73709,-1.099,0.86469,-0.027871,-1.1247,0.27805,-0.027998,-0.84411,1.5025,-0.43605,-0.10458,0.37988,-0.25753,0.02309,0.45674,-0.027987,0.32912,-1.7367,0.32902,0.38005,0.86461,0.27782,-0.92059,1.375,-1.0225,-2.1446,-0.436,2.497,2.3437,0.099185,-1.1757,-1.7877,-0.46145,1.1198,-0.07899,0.32912,0.8392,-0.4615,-0.25751,-1.2266,0.48223,0.76267,0.66048,0.048573,-0.053446,-0.20643,-1.2012,-0.00251,-0.02792,0.22701,1.5532,-1.6091,-0.94622,1.0433,1.6298,-0.1555,-0.53795,-0.002461,-0.38495,-0.10464,-0.25752,-0.15551,1.4258,0.60946,0.50771,-0.15538,0.15051,-0.18097,-0.61463,-1.6856,-0.86966,1.2218,-0.10462,-1.2268,1.5024,0.12521,0.02309,-0.86964,1.5536,-0.89523,-0.92089,0.81349,0.89014,0.25267,0.43122,-0.89512,0.023041,-0.33416,0.32895,0.15044,0.099595,-2.0937,0.22735,1.2473,0.40554,-0.43599,-0.53815,-0.74217,0.12499,0.43106,0.99214,-0.28301,0.15058,0.17612,-0.10429,0.022968,-0.56373,-0.15549,0.25267,0.073953,1.6043,-0.43605,-0.6146,-0.38502,0.50756,0.3036,-0.30852,-0.99704,-0.20654,0.27817,-0.64004,0.83912,0.78813,-0.20646,-0.9206,-0.84399,1.1961,0.25251,-0.43607,0.76267,-0.5635,0.73723,-0.23204,1.4003,-0.1811,-0.9716,-0.5124,-0.51248,-1.0226,-1.6603,0.73698,0.96681,1.2983,-0.23196,-0.92059,0.53296,-0.10458,0.12514,1.0433,0.20156,0.099528,-1.0227,-0.18121,2.2674,-0.89488,-0.33378,-0.46152,-0.84408,-0.23196,-0.15555,0.55848,0.30353,-0.92075,0.78837,0.17607,1.4512,-0.10464,-0.79306,-0.63993,-0.51256,0.45666,-1.6092,-0.053537,1.0943,1.1962,-1.2267,0.5331,0.76248,-0.56363,0.45669,-0.078837,-0.28303,-0.002485,0.45664,-0.20652,-0.15543,-0.12993,0.25257,0.73722,-0.97165,-0.13004,0.25262,-0.10454,-0.46161,0.048585,-0.74204,-0.002619,0.04858,1.0177,0.53309,-0.15551,-1.3542,0.60973,0.27817,-0.23194,0.73722,0.022998,-0.2066,-1.1758,0.6352,0.099546,0.38002,-0.10434,0.38023,-0.10452,-0.76761,-1.0737,1.0433,0.073922,0.048402,1.1198,-0.74206,-0.86955,-0.10449,-0.41044,0.12522,0.68616,0.07394,0.40552,-0.43618,-1.0225,-0.86972,1.732,0.76245,0.76261,-0.81855,-0.92069,0.023163,0.27802,1.2219,-1.3032,-0.56353,0.66062,0.68615,0.22705,-0.30848,0.40563,-0.69111,0.099461,0.32909,-1.4815,0.32912,-0.053611,0.83904,1.0687,0.83939,-1.6347,-0.51255,0.55868,0.50761,0.15045,-0.15559,0.25264,1.1706,-1.813,-1.201,2.4203,0.099473,-0.64019,0.68636,-0.97148,-0.2321,0.78809,-0.71667,0.48206,0.45666,-0.48701,-0.74206,0.20152,0.32913,-0.3594,0.074033,-0.10448,-0.28298,0.022937,1.4768,0.22712,-0.43609,-0.94619,-0.18098,0.63511,-0.74203,-1.6093,0.89019,1.5789,0.09951,-1.0993,-1.6604,1.2984,1.5024,0.5842,-0.56379,-0.58897,-1.2265,0.73723,1.5532,-0.4871,0.73698,-0.94612,-1.5073,0.38011,-0.51259,0.45649,1.4512,0.76283,0.81377,-1.8895,-1.66,0.25257,0.099406,0.40542,0.99213,0.68605,-0.51244,-0.053353,-0.6148,0.83927,-0.71652,-0.20649,-0.18103,-0.28302,0.45656,0.12492,0.60962,-0.97151,0.86469,-0.793,-0.23186,-0.053427,0.53314,0.78801,0.32896,-0.46152,-0.74215,0.55865,0.023157,-2.0172,-0.15561,1.1197,0.73711,-0.00235,0.22702,0.45664,-0.89515,-0.05364,1.3492,-0.58894,-0.61447,0.40569,0.22711,-0.027846,-0.25754,1.0175,1.6042,-1.8387,-4.0066,0.66066,1.2727,0.73706,0.25261,-0.002381,1.0941,-0.58922,-2.4764,0.99243,0.48211,-0.33388,1.0944,-0.46172,0.7371,1.6553,-1.0224,-1.5837,-2.3236,-0.28307,0.83923,0.89032,1.7062,0.78808,-0.538,1.0177,-1.2774,-1.5836,0.20147,0.53304,0.22702,-1.0229,0.89049,0.91562,-1.4818,-0.10452,0.63495,-0.33418,0.60986,0.12518,-0.48695,-0.66554,0.73715,0.22724,-1.252,0.099399,-0.053671,1.8083,1.4512,-1.0481,-1.3286,0.60969,-0.10458,-2.655,0.099466,0.91567,-0.07891,0.048476,0.99237,1.2729,-0.30858,-1.0226,0.20148,0.35459,-0.71657,0.22713,0.17592,-0.61465,0.96683,0.17617,-0.33401,-0.18114,-0.69107,0.099588,-0.15552,-0.89502,0.45675,1.4,-0.20664,-1.4306,-0.64004,-0.38491,0.89015,0.43088,-1.3033,0.78823,-0.002681,4.4867,-0.76763,-0.10438,-1.099,-0.74189,-0.23234,0.78818,-1.5582,-0.61445,1.0431,0.17598,1.6042,-0.94599,-2.0425,1.9102,0.91546,0.12493,0.32906,0.8136,-0.15531,-0.86948,-0.51255,-0.4872,0.32923,0.43116,1.0433,0.023108,-1.1246,-2.1451,1.1197,0.32915,1.1962,1.1707,-0.76775,-0.63998,-0.56358,0.45667,0.43131,0.83927,0.15073,-0.84428,-1.7113,1.0432,0.45669,0.20158,-0.53826,1.4005,-0.28315,-0.41061,-1.2777,-1.6856,0.40563,0.43117,0.89021,0.96668,0.66065,-0.66542,-0.35945,-0.28317,1.3491,-0.33409,-0.20655,-0.2065,-0.71662,-1.0479,0.45654,-0.10439,0.20163,1.1705,-1.048,-2.6036,0.76255,2.2674,0.7372,-0.079093,-0.46154,0.25256,0.04842,-0.078923,-0.30833,-0.35951,1.4513,-0.64004,-1.8134,0.78819,-1.1246,-0.76754,0.55884,2.1653,0.40542,-0.51276,-0.56362,0.099583,0.48208,-1.3797,-0.99706,0.40573,0.30385,0.91567,0.48206,0.73705,0.12491,0.63518,-0.1809,-1.3796,-0.53823,-0.41057,0.20152,0.099479,1.2983,-0.30818,-2.5273,-0.23196,0.78805,0.55842,0.48224,0.89023,0.25265,-0.81862,-0.41052,1.1706,0.022961,0.15046,0.60973,0.30378,-0.18078,-1.0738,-1.0737,0.32896,0.023047,-0.43604,-0.56345,-0.1809,1.4257,0.32908,0.09943,-0.079063,1.4003,0.27808,-0.5636,-0.41049,-0.10463,-0.33386,-0.7419,-1.1502,0.35448,1.4002,-0.027987,0.22707,1.0943,-1.8388,0.30374,0.89015,-0.76761,0.35467,0.45662,-0.41056,-0.078923,-0.002497,0.4311,1.0942,-1.1758,-2.043,-0.94609,1.1709,1.2473,0.81375,0.60962,0.99207,-0.028005,-1.1756,-0.946,0.099595,-0.28317,-0.58908,-0.13009,0.76277,1.5788,0.074008,-1.7366,-1.1246,0.5585,0.9413,0.27808,-1.1758,0.94111,-0.18093,-0.33387,0.074075,0.68617,-0.43607,-0.15554,-0.51258,-0.76753,1.1198,0.48214,1.0942,-0.79304,-0.79327,0.50761,-0.30858,0.12527,-0.25754,0.58403,-0.48706,0.12499,0.86465,0.048487,-0.48701,-1.2776,-0.13002,0.43123,0.63517,-0.20643,0.63511,-0.15554,0.53299,-0.078923,-0.86945,0.02309,-0.20659,-0.41063,-0.28314,1.7063,0.53298,-1.0481,0.4821,-0.48691,-0.53793,-0.86966,0.38011,0.4056,-0.20663,0.15058,-0.48716,-0.23204,0.15058,0.86467,0.15059,0.58408,-0.89502,-1.0734,-1.1246,-0.13009,0.81352,0.27808,-0.2065,-0.13002,1.0432,0.53307,-0.15554,-0.53811,0.60968,-0.46158,-1.0225,0.20166,0.17598,1.5532,-0.18115,-0.69092,-0.35946,-0.79299,-0.76752,1.0687,0.96668,-0.38495,-1.3031,0.89004,0.30346,-0.053427,0.35458,0.6606,-0.51268,0.27814,0.023163,-0.53798,-0.79306,-0.10448,0.22708,0.2779,1.2983,-1.1246,-0.8184,-0.20652,0.17606,0.89004,2.9047,-1.4306,-1.2774,-0.28312,-0.002418,0.96663,0.0741,0.3037,0.17591,-0.13006,0.60956,0.73721,-0.334,-0.12989,-0.30845,-0.94614,-0.10454,0.45669,0.32918,-1.0738,0.40563,-0.2322,-0.30861,0.38016,-0.002301,0.71173,0.1506,1.0687,-0.25742,-1.4053,-0.38515,1.3748,0.60963,-0.38505,-1.1502,0.12498,0.63515,1.2218,0.023176,-0.51263,-0.74199,-0.48703,-0.8951,0.96673,0.25261,0.15051,0.6861,0.32905,0.38019,-0.436,-0.61458,-0.41051,-1.5074,0.099466,0.55869,-0.15529,0.25273,1.1197,1.8084,-1.5328,-1.0483,0.58388,-1.839,-2.1703,0.71183,1.7573,-0.027882,0.22716,2.1147,1.0687,-1.0738,-2.0175,1.6298,-0.69104,-0.76761,0.89024,-0.99716,-1.0225,0.96697,1.0431,0.81351,-0.53826,-0.99715,-1.1504,1.4513,0.2783,0.35481,-0.61449,-1.3542,0.35449,0.20152,0.55856,0.81374,0.38006,-0.43607,-0.71652,-0.86958,-0.28293,0.35461,0.27806,-0.33398,-0.027773,0.55845,-0.053653,-0.64023,0.20156,0.99237,-0.18098,0.81379,0.94131,-0.56353,-0.48709,0.96668,-0.84415,-2.6295,-0.81855,0.68616,0.73703,0.38013,1.0689,1.2982,0.30363,-1.2011,-0.43608,-0.33421,0.66062,0.35475,-0.15555,0.22707,0.40561,-0.28309,-1.0479,-1.0226,1.5278,0.83914,0.15057,-2.3745,-1.9152,0.50761,1.8084,1.5278,0.43108,0.35452,0.20164,-0.30855,-1.8899,-0.64009,0.30377,1.5535,0.40566,0.68604,-0.81876,-0.81864,-0.28308,0.32909,-0.94597,-0.28278,0.99224,0.94122,0.94108,0.048335,-2.247,-0.23202,0.94115,0.71183,0.22724,-0.84414,-0.4615,0.32912,1.6042,0.48205,-2.2468,0.45664,-0.10466,0.17606,-0.18099,-0.53801,-0.25746,0.20157,0.76261,0.89009,-1.3542,0.1762,0.43126,-0.94604,-0.41049,0.37998,-0.81868,0.099394,0.43134,1.0433,-0.9208,0.68603,0.7116,-0.5379,-0.7675,0.30358,0.27804,0.81367,-0.15549,-0.33401,0.048494,0.66047,-1.3286,-2.5015,0.22711,1.0686,1.1197,-0.25757,1.2982,-0.66553,0.023065,0.023078,0.76272,0.99228,-0.64012,-0.53807,-0.23196,0.45664,-0.48695,-0.84408,-1.0737,0.89012,1.1452,-0.793,-0.86956,1.2217,0.53306,0.15057,-1.0736,-0.027748,0.68613,-0.38506,0.048506,0.074038,1.5534,-0.41048,-1.5328,-0.7167,-1.5329,1.5534,0.17614,0.38013,0.4821,1.0941,-0.63999,-1.6855,0.17603,1.1452,0.38009,-0.61463,-0.28303,0.89018,0.68615,-0.58903,-0.64011,-0.58898,-1.2266,2.4206,0.5076,-0.18122,-0.38492,-1.2777,0.074173,0.22693,0.96677,-0.56372,0.38023,0.48214,-1.6859,-1.8645,0.50777,0.94132,0.48233,-0.053397,0.8646,0.94114,0.048549,-1.1756,-1.2012,-0.028036,-0.46149,0.45658,-0.43616,2.497,-1.4305,-2.6292,0.1506,0.38001,0.68601,0.37986,0.68609,-0.66545,0.12499,1.6043,0.73722,-0.15535,-1.5071,-1.3032,0.30363,0.45664,-0.334,-0.10449,0.60943,-0.46161,-0.61429,0.20166,0.60963,0.30349,-0.38508,-0.99709,0.048549,1.1452,0.96669,-1.4818,-0.76755,0.55877,0.58421,0.22706,0.0485,0.099521,-0.10451,-0.13,-0.56356,-0.079002,1.4258,-0.35951,-1.6348,1.3493,-0.48696,-0.18095,-0.56342,0.68621,0.37998,-0.23207,-0.18109,0.15045,0.68614,-0.23194,-0.69083,-1.4054,1.1963,0.3291,0.37998,-0.4361,-0.1555,0.78816,0.2781,0.40562,-0.334,-0.74204,-0.28305,-0.23199,-0.41049,0.048543,-0.30848,0.60969,-0.30863,-1.8643,0.81379,0.17589,0.37998,-0.002277,0.099577,0.83915,-0.84425,0.07391,0.25262,0.40553,-0.053519,-0.12996,0.17607,-0.436,-1.0735,-0.61451,0.60962,0.76264,0.25257,0.22707,0.38006,0.17604,0.12499,-0.027974,-0.25749,0.27805,-0.58902,-0.94598,0.27824,0.17604,-1.3032,-0.58943,1.8848,-0.12998,2.3695,0.99231,-1.0481,-1.3031,-0.74203,-0.1556,0.55858,0.32899,-0.10455,0.22705,-0.69107,0.25272,0.38016,-0.33401,0.074013,-0.51249,0.329,-0.43604,0.48211,-0.1554,-1.4049,-1.1504,0.43086,0.27812,2.0889,1.1707,-0.56336,0.25252,-0.86965,-0.84405,0.86475,-0.10472,-0.76767,0.25264,0.15064,-0.58901,-0.13003,0.50756,0.60962,0.099583,0.58416,-0.20645,-0.89505,-0.002448,0.12508,0.40555,-0.232,-0.51254,-0.30856,0.1761,0.45653,1.1451,0.89009,-0.8184,0.30355,-0.12997,-0.81851,-0.64007,-0.20655,-0.41069,-0.002552,1.2983,-0.4871,-0.10434,0.074093,-0.35964,-0.92057,0.45662,0.048573,0.4056,0.17596,-0.28303,2.1142,0.38008,-1.8385,-0.69101,-0.053482,-0.33406,-0.30844,0.176,0.45645,0.686,0.81365,-0.69108,-0.97149,-0.053415,1.1197,0.89021,0.17608,-1.4308,-1.2267,-0.4106,-0.05347,-0.56348,1.1963,1.3747,-0.89497,-1.7111,0.68588,0.839,0.35458,-0.10438,0.17611,0.048561,0.55859,0.63518,-1.3796,-0.6656,-0.69104,0.023059,-0.25765,0.25262,0.30354,0.50758,0.89011,-0.334,-0.10447,-0.078935,-0.28301,-0.028005,0.074033,0.45659,1.2982,-0.1556,-0.64009,-2.2467,-0.20638,1.5025,0.22705,0.4056,0.1503,-0.25757,-0.99707,-0.13005,0.15057,0.25256,-0.23198,0.7882,-0.18105,-0.18107,0.25266,-0.33407,-0.15537,-0.23186,-0.89506,0.1253,0.55859,0.83898,0.22704,-0.84411,-0.74198,0.60959,0.40557,1.451,1.2216,-1.8897,-0.97145,0.43106,0.43112,1.1198,0.50774,-0.46153,-1.0737,-0.92056,0.43117,-0.487,-0.58908,0.176,0.58411,-0.25759,0.73712,0.40558,1.477,-0.4361,-0.23202,-0.6656,-0.66571,-0.10452,0.22697,-0.283,-0.66545,0.73719,0.12509,-0.25736,-0.027901,-0.28294,-1.3287,0.76247,1.1198,1.1962,-1.2522,-0.58913,-0.12997,0.76267,0.63505,-0.43584,-0.181,-0.84424,0.60965,0.6096,-0.18099,0.30355,0.7882,-1.9661,-1.8133,0.43093,0.94135,-0.25753,-0.002583,2.1399,-0.2065,-1.2776,0.25274,-0.74193,-0.79328,0.96666,0.58401,-0.079039,0.45659,-0.53807,0.55872,-0.23193,0.37996,-0.38505,-0.48694,0.30361,0.074149,-0.15554,0.32914,-0.12994,-0.23217,-0.18097,-0.48692,-0.74208,0.32905,-0.41056,0.20164,0.22708,0.048438,0.17599,-0.002412,0.53306,-0.35953,0.22708,-0.18082,-0.89502,-0.8696,-0.002534,0.71149,0.60952,0.73716,0.35477,-1.6348,-0.99721,-0.12993,1.0943,0.45656,-0.79309,0.2016,-0.053671,-0.07913,0.38012,-0.56339,1.3239,-0.25755,-1.1756,-1.6856,-0.027998,1.3236,0.30348,0.17584,-0.33403,-0.002161,0.7882,0.96681,-0.12999,-0.002516,-1.1504,-0.43613,0.073989,0.89012,-1.8896,-0.28295,1.0432,1.0431,-0.181,0.17609,1.1453,-0.99712,-3.2416,0.32896,1.8595,0.99224,0.02309,0.25252,-0.66544,0.20151,-0.33413,-1.0737,1.8082,1.1963,-0.71654,-2.4509,-2.145,-0.25738,1.7064,0.8646,0.71176,0.45668,0.66052,0.15053,-0.64003,-1.3031,0.25254,1.1452,-1.0482,-0.078928,1.0686,0.73715,-0.10444,-1.7368,-1.252,0.81369,0.83931,-0.89521,0.022937,0.4311,-0.20639,0.76273,1.2219,0.68607,-0.74204,0.38009,0.71158,-0.89515,-1.0223,-1.5838,-0.38508,0.073984,1.1195,1.2727,-0.10454,-0.43576,-0.30852,-0.51255,0.048555,-0.81865,0.99216,-0.69117,-0.46156,1.0943,-0.18109,-1.7111,-1.2518,0.20164,1.4767,0.9155,1.4002,0.86463,-1.1502,-2.2725,1.0432,0.38026,-0.053342,-0.15537,-0.28293,-0.33399,0.22705,-0.053531,-0.002516,-0.078984,0.22716,-0.56369,0.58409,0.5332,-0.12997,-0.23205,0.55867,0.023047,-0.027895,0.17602,-1.4306
-0.15549,0.023047,0.15056,-0.053482,-0.18099,-0.15551,0.074038,0.15056,0.17607,-0.002472,0.023041,0.048543,-0.002454,-0.027962,-0.12998,-0.2065,-0.027993,0.07402,0.50766,0.3546,-0.15548,-0.12999,-0.28303,-0.28302,0.15058,0.15055,-0.002472,-0.053451,0.048512,-0.07899,0.099564,-0.078966,-0.64,-0.46151,0.22705,0.43106,0.43106,0.43107,0.32908,-0.078966,-0.38502,-0.232,-0.1045,-0.002479,-0.027962,0.023072,-0.078977,-0.30851,-0.15548,0.099564,-0.002448,-0.28298,0.099552,-0.028036,0.023017,0.4566,0.27803,-0.002491,0.074038,-0.053446,-0.15547,-0.15545,0.023065,-0.053451,0.023078,-0.05347,-0.002467,0.048531,0.048543,-0.18101,-0.02798,0.15054,0.048531,0.048525,0.074062,-0.027962,0.023023,-0.002472,0.074051,-0.002461,0.074057,-0.053476,0.32918,-0.027993,-0.51255,-0.35951,-0.10451,-0.46152,0.38008,0.30355,0.15057,0.074026,-0.053482,0.17607,0.22705,-0.002467,-0.20649,0.0485,0.048561,-0.23198,-0.28297,-0.1045,-0.38502,-0.15545,-0.538,-0.15549,0.94117,0.86462,-0.13002,-0.48702,0.35461,0.20152,-0.35954,0.099528,0.023017,0.023017,0.074051,-0.56353,-0.53801,-0.20647,-0.053433,0.023096,0.78813,0.53311,0.099534,-0.20653,-0.20653,-0.53807,-0.028036,0.22702,0.53313,0.48213,0.2271,-0.053415,-0.51249,-0.56351,-0.51249,-0.02792,0.43105,-0.15557,-0.053495,0.63507,0.15052,0.17603,0.25253,-0.23201,-0.027944,-0.41049,-0.23194,-0.10452,-0.078935,-0.053402,-0.002399,0.45662,0.17595,0.12499,-0.30854,0.25257,0.074062,-0.18098,-0.10449,-0.05347,-0.56356,0.58408,1.2726,-0.76752,-0.81853,-0.002394,0.2272,0.17605,-0.66555,-0.30858,-0.28302,-0.00257,1.0432,0.48204,-0.079033,-0.41049,0.048506,-0.64003,-0.33401,0.48209,0.38015,-0.078879,-0.48699,-0.51257,0.43106,0.35454,1.1961,-0.02798,-0.61445,-0.58904,0.81368,-0.283,-1.0991,0.27809,1.4512,1.0177,-1.3286,-0.94611,-0.79316,-0.028042,0.55853,1.3748,-0.002521,-0.053415,-1.0735,-0.18098,-0.02798,0.099619,0.55853,-0.078996,-0.1298,0.91561,-0.43609,0.073935,-0.33401,0.25265,0.32907,1.0432,-0.35946,-1.7367,-2.1702,-0.053635,0.43108,1.5532,0.35451,0.86472,0.76263,0.48218,-0.46147,-0.28293,-2.4253,-0.58899,-0.25759,-0.15559,1.1196,0.58408,0.71178,0.76255,-0.71659,0.09957,0.099588,-0.30835,-0.53814,-0.18091,0.76274,0.43105,-1.6348,1.6553,-1.0991,-2.7057,0.68607,0.35456,-0.35969,0.27813,2.4458,0.83909,-1.1757,0.38011,0.3036,-0.20647,-0.027969,0.1506,-1.1246,-0.20647,0.27811,0.20153,-0.20646,-0.92059,-0.28298,-0.25748,0.71168,1.5276,-0.2066,0.22708,0.17606,-0.69108,-1.5583,0.35472,0.86471,0.40551,-0.53809,1.3492,0.15066,-1.6092,-2.5273,0.1505,2.3438,0.76269,0.12508,-1.3796,0.32907,-0.38491,-0.25748,0.99199,-0.28306,-0.28294,0.3291,-0.078886,-0.51246,-1.4816,1.8337,0.32913,0.81378,0.22693,-0.66561,-1.4817,-1.2011,1.1706,-0.13011,1.0941,0.78837,-2.6546,0.53301,1.1706,-0.89524,0.27816,-0.51237,0.89011,-0.1301,-0.6399,0.73712,0.048585,-0.13,-0.002497,-1.1248,0.40555,0.94121,-0.63998,-1.2521,-0.69105,-0.10461,2.4204,2.2927,-2.5272,-0.43602,0.81368,0.45665,0.38014,-0.053476,-0.43592,-0.002412,-0.002485,-0.92078,0.30372,-0.66559,-1.609,0.91556,1.4256,-0.18095,-0.1556,0.9157,1.7575,-0.97158,-0.793,-0.33412,1.5534,0.02295,-1.8386,-0.64011,-0.92088,2.1908,1.1961,-0.5379,-0.12995,1.0178,-0.07891,-0.92056,0.91575,0.89017,0.20163,-2.0173,-0.30854,0.992,1.2726,0.5331,-0.10463,-0.33387,-0.69111,-0.4361,-1.0991,-1.354,-0.61437,3.5169,3.2875,0.50752,-2.2723,-0.97152,0.63526,-0.002338,-1.8134,0.35444,0.53296,0.22726,0.5585,1.5023,0.38014,-0.92067,-0.38487,0.35461,0.7882,-0.74195,-1.099,0.45657,-1.0227,-2.1702,-0.25753,0.86453,0.73704,1.8591,-0.53807,-0.74187,1.6042,0.43111,-0.027882,0.099485,-2.0429,-0.23195,1.6809,0.50762,-0.53798,-1.0736,-1.3798,0.78821,0.023059,0.22708,1.4766,-0.13005,1.4512,0.71178,-1.9407,-1.9661,0.55872,1.0431,-0.05339,-0.61465,1.5532,-1.4818,-1.1247,-0.002601,2.3951,1.0177,-0.33393,-0.20638,-0.18105,0.15041,-1.8899,0.17604,-0.30864,-0.76761,-1.8131,1.2729,0.25262,0.35441,1.8849,1.7062,-0.89505,-1.7111,0.27795,-0.38492,-0.18106,0.048487,1.1707,-0.81851,-1.3797,1.2217,-0.053427,-0.18093,-0.74227,-0.56347,1.7573,0.94128,-0.79313,-0.51247,0.099601,-0.46157,-0.33409,0.73707,-0.92054,0.30361,0.99212,-0.23205,-0.74216,0.40549,0.30355,0.30356,-0.58926,1.3238,-1.5071,-0.51241,-0.25732,2.0634,-1.4307,-1.5327,-0.66555,1.2217,1.1961,-0.53984,0.32721,0.09951,-0.4361,0.12488,0.30348,-0.18097,-0.46153,0.43121,0.023047,0.71175,0.81371,-0.43604,-1.3288,-0.002472,-0.30844,0.73723,0.38009,-0.28289,-0.92052,-0.71663,-1.1247,0.96656,1.9614,0.81359,-1.0736,0.50754,1.4512,2.2672,-1.8387,-2.6293,0.2782,1.5024,0.37992,-0.61467,-1.1756,-0.078801,1.1962,2.2927,-0.20634,-2.6804,-0.33409,1.196,0.48205,-0.28299,-1.1246,1.2217,0.3546,-0.71652,0.78812,-0.02792,-1.1756,-0.23201,0.12499,1.1961,0.022956,-0.895,-0.027895,-0.002443,-0.61462,0.22713,0.099632,-1.1757,0.78822,0.048561,0.07402,2.3692,-0.86972,-1.7622,-0.69094,0.58409,0.43098,-0.94619,0.12507,2.0633,-0.25753,-2.17,0.12514,0.60972,0.96666,0.12493,-0.41054,-0.89524,0.48225,-0.23208,0.20155,0.17614,0.45659,-0.053604,-0.43601,-0.10447,0.71167,-0.028066,-1.1501,-1.2777,1.3237,0.81376,-0.15537,-0.23208,0.48201,0.96693,-0.53792,0.71168,0.099448,-0.13005,0.35458,0.78804,-1.8641,-2.3997,-0.61462,-0.30855,1.6043,1.5021,1.2982,1.1197,-0.53798,-0.56359,-0.81844,-1.5836,-0.10434,-0.51249,1.2215,1.0686,1.9867,-0.61453,-1.2775,-2.6295,0.12518,1.4769,0.30351,1.0688,0.074173,-0.48686,-1.5328,-0.8696,0.3545,1.9866,1.0684,-0.79304,0.25254,0.20158,-0.92064,-0.48696,0.89038,0.099619,-0.56359,0.76256,-0.74209,-0.69099,0.68609,0.227,0.2527,-1.2522,-0.79299,0.53309,0.96684,-0.92062,-0.51262,1.8081,1.5532,-1.0227,-0.38492,0.22719,-1.3796,-0.61457,1.6298,-1.2775,-0.25726,-0.28294,1.043,1.6551,-0.48713,-1.7112,0.22717,0.22703,0.17616,-0.46167,0.66062,0.89007,0.58403,-0.51239,-1.6347,-0.74194,0.50752,1.4512,0.35454,-2.1447,-0.15538,-0.002497,-0.23203,0.83902,0.35468,0.09954,-0.81838,2.2927,-0.43604,-2.0172,-3.2924,-0.69128,1.7318,2.2165,2.0633,0.30344,-0.84414,-0.94606,-1.2522,-0.84405,0.66069,1.1196,-1.0737,2.242,-1.099,-0.41041,-0.99723,-0.97163,-0.56349,0.89024,1.4767,0.099473,1.6296,0.22693,-0.46152,-0.69091,1.1197,-0.84406,-0.76758,1.0942,-0.63995,-0.28294,-0.71655,-0.30858,-0.33414,0.048482,0.2015,0.63513,0.53315,0.048525,-0.56361,0.35465,-0.078892,-0.51276,0.048433,-0.4614,0.12513,-0.053464,-0.30835,-0.76757,1.2724,0.099466,-0.3341,-2.2978,0.35439,1.9104,-0.3337,-1.3029,-0.078947,0.94103,1.4002,-0.41043,-0.99712,-1.1758,0.60949,-0.053446,1.808,0.55856,-1.1246,-0.2319,0.2273,0.048604,0.60951,-0.53807,-0.94605,-0.43607,-0.078801,-0.33395,0.15056,-0.33399,0.71147,0.40545,0.43104,-0.41049,0.45669,0.63512,-0.385,-0.18103,0.30346,-1.3542,-0.69079,0.78822,-0.028121,0.63517,-0.94599,-0.23193,1.1196,0.55851,0.15061,-0.10443,-0.35948,-0.25743,-0.538,0.81359,0.45657,-0.053647,-0.2832,-0.053482,-0.487,0.50774,1.1709,-0.92051,-1.5327,0.48201,2.5222,-0.61451,0.099577,-0.2319,-0.35941,0.32899,-1.2267,0.17616,-0.12988,-0.12993,1.2726,0.83908,0.27808,-0.28298,-0.002443,-0.84417,-0.30858,-0.64018,-0.15541,0.78822,0.074062,-0.18099,0.17609,-0.38502,-0.3849,-0.053397,0.43112,0.27803,-0.25759,-0.4871,-0.76754,1.5279,0.45653,-0.64004,-0.002516,0.55854,-0.89493,-0.69098,0.53293,0.99207,-0.053555,-0.078941,-1.0227,-0.58907,-0.81824,1.1198,0.68612,-0.079173,-0.02809,-0.10429,-0.12991,-0.69115,0.38013,0.099491,0.27803,0.17595,0.73709,1.1452,-3.4708,-1.3543,1.4513,1.2217,-0.002314,-0.99682,0.48197,0.76259,-0.69103,-0.58908,0.17589,2.7517,-1.7366,-2.6037,-0.41052,0.68613,-0.05347,0.71176,1.5022,0.12501,-0.94616,-0.46133,-0.078928,0.76258,0.27793,-0.51259,0.099577,0.96657,-1.9917,-1.4562,2.0887,0.25251,-0.86956,-0.63987,-0.02792,-0.18094,0.35462,0.48201,0.63508,-0.46156,0.099326,-0.053458,1.6297,0.099681,-1.4306,0.66066,-0.69105,-1.1757,-2.0171,0.94118,1.5277,2.2416,-2.0171,-2.8588,0.27791,1.9102,0.68622,-0.027815,-0.18089,-0.15541,0.35445,0.96663,-1.099,0.25262,0.25243,-0.84403,-1.6091,0.71158,0.20151,-0.23205,0.7116,0.431,0.30364,-0.79282,-0.4871,1.2217,0.63496,-0.20647,-0.12986,-1.0479,-0.38497,-0.30864,0.25238,-0.53813,-0.99692,0.53312,0.35448,-0.69106,0.94113,1.3237,0.55864,0.55858,-0.2065,-0.51257,-0.002521,0.63504,-0.76755,-1.7111,-0.027876,-0.20655,-0.48701,1.1706,0.099528,-0.71663,0.99221,0.78808,-0.15552,-0.18086,1.9869,-1.8899,-1.9151,-0.20653,0.27803,-0.12987,0.99212,2.5733,-1.15,-1.405,-0.61463,-0.002516,0.60953,0.63504,-0.053293,-0.5381,0.78799,-0.2829,-1.354,-0.487,0.38013,-0.41054,1.7572,1.2726,-0.66547,-0.99713,-0.002552,0.53303,0.66078,-0.53803,0.45644,-0.43603,-1.3286,0.63521,0.048683,0.17611,-0.81871,1.7317,1.2727,-0.002516,-2.3742,0.58402,-0.20647,0.43107,-0.2065,-0.30835,-0.94608,-0.079088,0.83926,0.1505,-0.48713,0.074051,0.099394,-0.02792,-0.12995,0.83886,0.5332,0.048805,-1.6347,0.66059,-0.078886,-0.053451,1.5276,-0.28314,-0.48706,-0.1045,0.27808,-0.43587,0.048671,0.022974,-0.97163,-1.2012,0.25267,1.4258,1.1196,-0.97158,-0.844,-0.15548,0.37994,0.17601,0.55887,-0.64003,0.15045,-0.23208,0.278,0.94111,-0.35945,-0.6654,-0.28292,-0.028066,0.17597,-0.74206,-0.15549,1.2982,-0.18097,-0.71644,-0.41047,-0.74221,1.8082,0.35459,-0.99687,-0.6909,1.0176,1.0684,0.02298,-0.10447,-0.28289,0.45655,0.43105,-0.23202,-0.63999,-0.053476,-0.43591,-0.027993,-0.84406,0.584,0.17605,1.3237,0.38013,-0.76753,-0.38488,0.53315,0.35449,-1.2522,0.53307,-1.7366,-0.23178,-0.15548,1.9102,0.25245,-0.66546,0.68622,1.0431,0.43118,-1.5837,-1.1757,0.81357,0.66058,-1.3031,-0.12988,0.22709,0.43117,-0.18102,0.94114,-0.028011,-0.79286,-0.33402,0.329,0.17605,0.38013,-0.71668,-0.46159,-0.15549,1.1962,0.60963,-0.28295,0.25265,-0.48708,-1.5329,-0.46142,0.40573,-0.35936,0.63502,0.66047,0.17601,0.40561,-0.053464,-0.30846,0.43114,-0.23202,-0.33404,-0.30853,0.12508,0.89011,1.0433,-0.23213,-2.4762,-2.9608,-0.35949,1.0177,1.5787,1.1451,0.43121,0.40552,0.32898,-0.61452,-0.33398,0.30351,0.89013,-2.1702,-1.8386,0.94114,0.55854,0.63503,0.45662,-0.99699,-1.2775,0.53307,1.4257,-0.30853,-0.46158,0.45636,0.83903,0.71176,-0.63993,0.43118,0.7881,-0.25736,0.22703,0.2525,0.30351,-0.53803,-2.4762,-0.25747,-0.002528,0.53307,0.71169,1.3492,0.15054,-1.0736,0.22709,0.17605,-0.1554,0.22706,-0.12993,-0.053506,1.1961,0.073928,-0.66547,-0.20646,-0.078935,-0.12995,-0.8951,-0.13002,1.2216,-0.10448,1.1196,0.86464,0.25262,-1.4562,-0.97153,0.2782,0.48208,0.38006,-0.5382,-1.0735,-0.99701,0.60969,1.2981,0.32908,0.20158,0.32904,0.4311,-0.53803,-0.97157,0.81373,-0.43607,-0.79309,0.43111,1.7573,-0.027969,-0.64007,-1.8642,0.6606,0.50755,0.27805,0.89016,-1.1501,0.50761,1.2981,0.89017,-0.4615,-0.35953,-0.74198,-1.2266,0.22706,-1.4307,-0.15559,0.35461,1.3237,0.20142,0.86475,-1.0224,0.58408,-0.15553,-0.33406,0.91567,-0.43608,-1.7877,0.38008,0.048506,-0.15541,-0.10442,0.15054,0.81363,-0.10448,-0.56343,0.20155,1.094,-0.97163,-0.64001,-0.30844,0.66063,0.86463,-0.25752,-0.51254,-0.18121,0.58411,0.35466,0.6608,-0.69094,-0.84413,-0.53798,-0.46162,0.482,0.83914,-1.5581,0.099613,0.7371,0.074069,1.1451,-0.35953,-1.0225,-0.46147,0.45661,1.2726,0.1506,-0.79301,-0.48695,0.78819,-0.76752,0.20147,-0.53822,-0.13008,0.3036,-0.053366,-0.2829,0.55859,-1.3797,-0.6911,0.40549,0.53309,0.63533,-0.84395,-0.028011,0.38001,0.71152,-0.33399,-1.6856,-0.002405,1.7572,0.68602,-0.51252,-0.028036,0.8391,-1.6601,-0.053439,0.12517,0.48213,-0.53806,-1.0991,-1.2521,0.22713,0.6861,1.3236,1.4001,-0.58923,-1.4561,-0.35934,0.71168,0.50772,-0.35949,-0.18109,0.22706,0.76263,-0.13003,-1.2266,0.35453,-0.25744,-0.74184,-0.13004,0.15047,1.3491,-1.048,-0.25756,0.35461,0.76266,0.6606,0.48213,0.22697,-1.0991,-0.99713,-1.1245,0.35463,2.3184,-0.078953,-0.7166,-1.0227,-0.58911,-0.66551,1.0942,0.83909,-0.38501,0.099546,0.68608,-0.078966,-0.13005,0.099436,-0.51249,0.12513,-0.8185,-0.48703,0.32909,1.1708,-0.94602,-0.5125,0.89016,0.35458,-0.4105,0.40545,-0.5891,0.78813,0.94128,-1.1501,0.35448,-0.15545,0.63513,-0.10448,-1.8132,-0.89521,-0.00243,0.89024,0.15064,0.32914,0.27812,0.17607,-0.002528,-0.89512,0.83909,0.022998,-0.23193,-0.71651,0.40553,0.60964,-0.13007,-0.48706,-0.61453,-0.33395,0.55864,0.78813,0.2526,-0.71673,-0.30851,1.0176,1.2727,-1.9406,-1.303,-0.20648,0.22696,0.96668,1.5532,-0.46155,-0.28294,1.2984,0.099497,-0.5382,-0.002467,-0.56339,-0.76749,-0.18097,0.60951,-0.35947,-1.2775,0.099534,1.1706,0.20155,0.32907,0.023103,0.15069,-0.002491,-0.053586,0.27802,0.48195,0.25257,-0.078984,0.55889,0.25284,-0.10454,-0.84404,-0.079026,-1.2778,0.50749,0.66055,-0.13,0.20157,0.43117,0.25265,0.099564,-0.10449,-0.4615,0.38017,-0.25743,0.073965,0.35454,-1.2267,0.7371,3.4403,-1.0481,-1.1755,-0.86942,0.71155,-0.18107,-0.25748,-0.946,0.17609,0.22708,0.43093,-0.15553,-0.002448,1.5532,0.099564,-0.48688,0.048592,-0.74203,-1.5071,0.38005,0.22705,1.3492,-0.56356,-1.0736,0.30356,1.4512,-0.33402,0.35453,0.76256,0.66063,-0.33406,-1.5836,-0.69105,0.12515,-0.027858,-0.18085,1.8591,0.32895,0.35451,-0.027925,0.099662,-0.46155,-0.35951,-1.3796,0.58415,0.96663,0.12501,-0.64011,0.099503,0.86474,-0.20645,-0.027962,-0.43598,0.074038,-0.43598,1.4513,-1.0226,-0.15553,0.78806,1.2471,-0.18108,-0.58882,-1.1755,-0.25748,-0.61459,-0.30869,0.76257,0.5841,-0.53801,-0.181,0.22706,0.25261,0.60963,-0.15552,0.5077,0.023145,0.099485,0.30349,-2.6293,-0.33401,0.6607,0.22696,0.73717,-0.3595,-0.28291,0.45658,0.48203,0.17594,-0.00243,-0.12994,0.25259,-0.38507,0.81359,-0.5126,-1.3795,-0.30854,0.048585,1.5276,0.4821,0.099619,0.38025,0.2526,-0.23201,-0.99709,-0.002521,-0.38504,-0.25746,-0.844,-0.25761,1.3491,1.0431,0.25256,-1.201,-0.63986,-0.92058,0.60954,-0.10459,0.27798,1.0433,-0.18094,0.4312,-0.053464,-0.053568,-0.61451,-0.69118,0.20166,-0.002479,0.73712,-0.41032,-0.053476,0.89015,0.074062,-0.43604,0.15038,0.048573,-1.1756,0.48212,-0.10441,-1.4561,-0.28308,1.5276,1.0432,1.9357,-0.56347,-1.2775,0.66067,0.45666,-0.13003,-0.079191,-0.33403,-0.35948,-0.99703,-0.41059,1.8848,-0.20637,-1.4816,0.73714,-0.18089,0.71153,-1.3287,-0.56364,0.25252,0.86461,0.40561,0.25256,0.89024,-0.46143,-0.436,-0.30845,-0.53807,0.073917,0.15054,-0.053397,-1.2011,0.099473,0.45673,0.50768,0.9921,-0.76752,-0.30844,0.76264,-0.2575,-0.61455,-0.20647,-0.13001,0.32889,0.66055,-0.33404,0.30366,-0.84404,0.023139,0.2781,-0.02798,-0.2065,0.9157,0.58408,-0.25746,-0.30838,-0.76767,-1.1757,1.2982,0.40562,0.32912,0.45661,0.30366,-0.28294,0.5584,-0.81859,-0.53793,-0.81859,-0.35961,0.40557,0.99233,-0.51244,-0.43598,-0.079021,0.20147,0.30354,-0.76748,0.15056,0.96666,-0.028023,0.099577,0.81362,0.20164,0.1506,0.073995,-0.25744,-0.76753,0.40556,-0.97154,0.30356,0.022961,-0.15554,-0.25749,0.27818,1.4766,-0.41049,-0.46142,0.25252,-0.81855,-0.18094,-0.51257,0.45651,0.86462,0.15063,-0.25748,0.25263,-0.25751,-0.078935,0.53302,0.2015,0.12501,0.048506,-0.23187,-0.1298,-0.66564,-0.79309,-0.48697,0.38004,0.68612,0.22706,-0.33397,0.91559,0.71158,-0.69099,0.12505,0.074002,0.20161,0.22706,-0.66556,-0.079093,0.68618,-0.053439,-0.25748,-0.10448,0.91562,0.023035,-0.94609,-0.64003,0.22707,0.81362,0.91561,-0.18103,-2.2212,-0.58905,1.6297,0.58407,0.73717,1.2726,0.25257,-1.201,-0.13002,0.099479,0.37998,-0.25749,-0.48687,-0.181,0.48211,-0.71656,0.27807,0.35451,0.38009,-0.15549,-0.18095,-0.33394,0.30355,0.91566,-0.10443,-1.2011,-1.048,-0.25762,-0.33399,1.5022,0.074087,-1.2265,0.30355,0.53306,0.099479,0.81378,-0.23202,-0.92058,-0.053488,0.20144,0.73727,-0.69105,-0.61451,0.2272,0.32902,0.68609,-0.89504,-1.0991,0.43105,-0.18102,-0.48705,1.4512,0.45663,0.55864,-0.15549,-0.79307,-0.48709,0.83935,0.27809,0.15049,-0.25748,-0.99715,-0.71656,0.099546,1.4003,-0.74204,-0.53808,0.15054,0.50759,0.35453,0.22704,1.0942,-0.66551,0.048598,1.5023,1.0176,-0.84406,-1.8897,-0.63994,-0.18084,0.48199,0.32904,-0.20656,0.71162,0.53318,0.63509,-0.079033,0.099583,-0.35948,-0.33412,0.584,-0.027797,-1.4306,-0.15549,0.073965,0.25257,1.1453,-0.48698,-0.25745,-0.181,0.99208,0.22701,0.15055,0.20152,-0.18097,-0.64006,0.099601,-0.35945,0.023047,-0.12997,0.048536,0.25252,0.27811,-0.81865,-0.30857,1.1451,0.12511,-0.74196,-0.20647,-0.48694,-0.25752,0.15053,0.83897,0.96675,-0.61452,-0.84405,0.50763,1.2472,0.40552,-0.74212,-0.8695,-0.38489,0.32905,0.43107,1.2217,-0.6402,-0.48699,-0.41043,0.76278,0.12502,-0.28307,-0.41054,1.2471,0.53299,-2.4252,-0.71652,1.2473,0.048525,0.53317,0.22709,0.50746,-0.20656,0.2271,-0.35952,-0.46149,-0.64004,0.27808,0.38006,0.099546,1.0432,-0.15537,-1.507,-0.6911,-0.58921,1.3491,0.81365,1.0687,-0.181,-0.76748,-0.28294,0.48203,-0.35951,-1.2775,0.099546,1.5531,-1.3542,-0.4106,0.25258,0.83924,0.48207,0.023023,-0.002461,-0.027956,-0.18095,0.1251,0.3545,-1.0226,-0.12989,-0.63996,-0.41049,-0.13001,0.86456,1.4256,0.76258,-0.002443,-0.92059,-0.385,0.27818,-0.2573,-0.15544,0.55862,0.71157,0.17594,-0.844,0.35456,0.15048,-0.20655,-0.002381,-0.43593,0.58403,0.60958,-0.10431,0.12502,-0.002565,-1.1501,-0.81851,0.68615,-0.18097,-1.0481,0.53302,1.1962,1.6554,0.737,1.0687,-0.86954,-2.4762,-1.201,-0.053622,-0.079081,0.048525,1.1964,1.5024,0.20143,-0.97158,-1.3541,0.048585,0.45662,-0.28303,0.12505,0.55861,0.12501,-0.61464,-0.18095,0.048518,0.78805,0.1762,-0.078696,-0.41061,0.58414,0.15044,-1.4561,-1.6092,1.4513,1.8593,0.58404,0.63507,0.5076,-0.8951,0.35474,-0.6146,-0.84409,-0.69101,0.099546,-0.436,0.17609,0.71163,0.074002,1.298,1.0432,-0.33402,-1.0991,-0.69108,0.73726,0.45669,-0.53797,-0.84403,0.25246,-0.51267,-0.35937,1.1198,0.68615,-0.61465,0.5841,-0.56356,-0.51262,0.83919,0.023005,-0.35945,-0.027822,-0.002485,-0.53798,0.12504,0.58408,-0.23202,-0.89513,-0.23204,1.0431,2.1652,-0.15538,-0.81814,-2.0426,-0.38505,0.17596,0.58403,0.58401,0.4311,0.58416,-1.0227,0.73714,0.60948,-0.10448,-0.94611,0.4822,-0.10443,0.27805,-1.6091,-1.507,0.94107,1.0942,0.25257,0.48192,-0.86966,-0.43601,0.17609,1.1198,-0.56364,0.023005,-0.41053,-0.23193,0.12512,0.17617,0.048494,-0.18103,-0.48702,1.2982,2.7519,-0.92049,-2.1959,0.43111,-0.41041,-0.63999,-0.25751,0.86466,-0.51255,1.8594,0.66065,-1.2777,-1.5327,0.22704,0.35455,0.17598,0.20146,0.55852,0.099521,-0.58896,-0.23197,0.48213,0.20152,-1.15,-0.86946,-0.48695,0.022956,0.96658,1.0685,-0.20657,1.3493,-0.51244,-0.43601,-0.33397,-0.28284,-0.23197,-1.2777,-0.15567,0.99205,1.2217,0.45663,-0.079008,-0.00235,0.4567,-1.0989,-1.5326,-0.76761,-0.053776,0.94103,-0.41056,1.5278,2.0634,-0.71647,-3.0884,-0.69118,0.78813,1.4004,1.2216,-0.71647,-0.63997,0.48215,0.60957,-1.1502,0.60957,0.27817,-1.4303,-0.74213,0.83906,0.20155,0.60957,-0.18102,-0.51246,-0.46162,0.66061,1.6808,0.50762,-0.15546,-0.92056,-0.33402,-0.35956,-0.79293,-0.20639,-0.30842,1.5276,0.68599,-0.18098,-0.25742,0.04858,-0.38504,-0.15546,-0.41063,-0.28291,0.73713,0.94114,0.17595,0.4821,-0.94606,0.022901,-0.053397,-0.35953,-0.33401,-0.28298,-0.35938,0.5842,0.89027,-0.30856,-0.66559,0.91563,-0.23194,-0.64009,-0.053544,0.99215,0.22702,0.32921,0.50757,0.17607,-0.41051,-0.1554,-0.48695,-0.35948,-0.13005,-0.028114,-0.053421,0.60959,0.68609,-0.92054,-0.89495,0.048512,1.0432,0.76263,1.2981,-0.71662,-1.4051,-1.1245,-0.15543,0.68613,0.66055,-0.35964,0.32905,0.22706,-0.41046,0.12507,0.89006,-0.30847,-1.7876,-0.002418,0.22701,0.8136,-0.23213,0.35455,0.45661,0.15068,0.023096,0.15062,-0.30849,-1.7622,0.04861,0.73706,-0.10447,-0.8696,0.68603,-0.10453,0.81376,0.074209,-0.61452,-0.07899,-0.51274,0.55835,0.40547,-0.05347,0.50772,0.04861,0.17617,-0.23186,-0.46148,-0.844,-0.51252,0.27802,0.25245,0.074013,1.6807,-0.078874,-1.6602,-0.86969,-0.002516,1.4004,0.30365,-0.002472,0.048304,0.30348,0.3292,-0.20633,0.099564,0.45666,-0.41051,-1.1246,-0.84415,0.22689,1.6552,-0.43602,-1.0225,0.023084,0.15052,0.96665,0.15058,-0.078861,-0.25748,0.12497,-0.66551,0.73712,0.7372,-0.30852,-0.4871,-0.6911,-0.10445,0.45669,0.43112,-0.51249,-1.0991,0.53306,0.94106,0.58407,-0.76774,-0.48699,-0.46147,-0.15533,1.1197,0.15049,-0.15557,0.022998,-0.8187,0.45672,-0.18082,0.81357,0.38014,-1.303,0.15068,0.91555,-0.94616,0.15056,0.30348,0.15048,-0.81848,-0.46148,1.2727,-0.25754,-0.94609,0.023023,0.76268,0.48214,-0.51251,0.22699,0.89009,-1.5071,0.73718,0.43112,-0.66555,-1.1502,-0.10454,0.63517,0.89017,0.8646,0.15055,-2.2722,-2.0426,0.27805,1.6043,1.8082,-0.10454,-0.74203,-0.28302,0.20152,-0.56363,0.55866,-0.66556,-0.63998,0.074111,-0.053329,0.35461,-0.56363,-0.33412,0.53311,0.15056,0.38008,1.0431,-0.61455,-0.23194,0.38013,0.45659,-0.33398,-0.6144,-0.94613,-0.76766,1.8594,-0.002491,-0.41049,1.0943,-0.30855,-0.92063,0.88997,1.2471,-0.30853,-0.30844,-0.74199,-1.8387,0.099619,1.3748,0.30363,-0.10445,0.58407,0.15054,-1.2266,0.40561,0.7626,0.63506,-0.078959,-0.66544,0.32913,0.15062,0.12501,0.048384,-0.9716,-0.30855,0.38009,0.074033,-0.078923,-0.12993,-0.30852,1.0941,0.32904,-0.33395,0.048549,0.89016,0.63518,-2.8077,-2.0938,0.86466,1.2981,1.9868,0.86456,-0.18093,-1.7111,-0.66553,0.38003,0.25248,-0.35944,-0.69115,0.1505,-0.053544,0.27817,0.96667,-0.79309,0.38022,-0.30839,-0.078917,-0.35957,-0.079021,0.25251,0.12491,-0.10449,0.023059,0.074087,-0.53801,-0.00243,0.40565,0.329,0.38032,-1.0226,-0.23209,-0.58908,0.048458,1.1706,-0.2065,0.023029,-0.15546,0.25258,1.6297,0.48195,-1.0991,-0.94593,-0.38497,1.5023,-0.25746,-1.3796,-0.53795,-0.283,-0.25763,0.96652,0.60957,-0.053562,0.9411,0.81357,-0.12991,0.048573,-0.33393,-0.58893,-0.97154,-0.7166,0.43108,0.50755,-0.4361,-0.41047,0.45658,1.1706,0.25272,-1.2011,-0.99706,0.76267,0.96659,-0.10454,0.839,0.17606,-0.71644,-0.23194,-0.63996,-0.20641,0.25247,-0.35973,0.099436,0.78808,-0.053348,0.4057,0.35472,-0.078935,-0.51253,0.023029,0.35458,0.30357,-0.71663,-0.84409,-0.38502,0.6606,1.1197,-0.28298,-0.078972,-0.38508,1.2726,-0.79286,-1.7875,-0.079081,1.0175,0.83905,0.38011,-0.46145,0.0485,0.48218,-0.46162,0.12507,0.048604,0.023121,-0.283,-0.74201,0.27806,1.0176,-0.10452,0.176,-1.0738,-0.69089,-0.18086,1.7063,0.86466,-0.25741,-0.74208,-0.58914,0.83911,1.3491,-0.38501,-2.0171,0.12503,1.0941,-1.1246,-1.4815,0.81372,1.5022,1.0175,0.12505,-0.56347,-0.46151,-0.20652,-0.13004,0.71163,-0.13007,-0.84397,0.40563,-0.027931,-0.28297,0.30355,-0.053433,0.58414,0.40555,0.12501,-1.4306,-0.64004,0.50752,0.53307,1.2472,0.40563,-0.15542,-0.20647,-0.027987,-0.15554,-0.76766,-0.89507,-0.66544,0.099644,0.53321,0.40558,0.35451,0.78804,-0.078959,-1.7622,0.32915,0.55867,0.6606,-0.15567,-0.81852,-0.71652,0.48216,0.86468,-0.13007,0.43112,0.48215,-0.86953,-0.79309,-1.15,-0.35958,1.2726,1.3747,-0.53798,-0.61447,0.074026,0.022925,0.48202,0.074062,0.60966,-0.23194,-0.41044,-0.0535,-1.2521,0.38013,0.7626,-0.23201,0.60955,0.329,0.023084,-0.43598,-0.51262,0.60966,-0.053568,-0.18095,-0.7166,0.40579,0.94114,-0.58906,0.76267,0.07391,-0.46147,-0.53793,-0.53795,0.023035,0.27802,0.17594,-0.74203,0.6861,1.1962,-0.41049,-0.33407,-0.002516,0.48205,-0.079002,-0.20656,0.99218,-0.12996,-0.53793,-0.33391,-0.51243,-0.28302,-0.43608,-0.23201,0.22702,0.50761,-0.4105,-0.027962,0.20159,0.3036,0.35454,-0.028018,0.91556,0.66062,-0.69108,-0.53793,0.12524,-0.002528,0.48202,-0.53801,0.60959,-0.18099,-1.1248,-0.74206,1.0432,0.40563,0.048494,-0.38503,0.91583,1.0178,-0.4617,-1.2521,0.99218,-0.23193,-0.92051,-0.15557,0.2525,0.22696,0.20169,0.023139,-0.002418,-0.053519,-0.10466,0.30351,0.099521,-0.81855,-0.10435,0.27817,-0.86955,-1.0737,0.89007,0.27799,0.40561,0.27808,0.40562,0.60965,-0.81858,-0.69099,0.22712,0.20158,0.074106,-0.053537,0.12494,0.40558,-0.15547,-0.283,-0.64006,0.40563,-0.30845,-1.6856,0.32913,1.6553,0.76268,0.78807,0.25249,-1.6856,-1.4052,-0.078966,-0.10447,0.94112,-0.30859,0.3801,0.71168,-0.35944,0.53325,0.81366,0.22714,-1.3286,-1.5839,0.099515,0.96661,-1.2776,-0.51245,0.89015,0.45652,0.45661,1.4002,0.048512,-0.66556,-0.48685,0.2271,-0.64007,-1.7367,-0.76752,0.68611,0.58407,1.3236,0.27802,-0.74215,-0.7165,-0.74198,0.27815,1.7317,0.91567,0.45656,-0.38497,-1.3286,0.074087,0.58414,-1.0992,0.38001,1.2726,0.09957,-0.078984,-1.0991,-0.25741,0.22718,0.71161,0.023114,-0.51255,-1.1756,0.20153,1.0431,0.38003,0.86461,-0.71656,0.60973,0.17604,0.22701,-0.63999,-0.43613,1.2727,-1.048,-1.0735,0.048518,0.3291,0.30353,-0.25759,0.81348,1.0686,-0.18086,-1.9404,-0.30856,0.71158,1.2218,0.073989,-0.89515,-0.18106,0.12495,0.35461,0.35472,-0.027962,0.074008,-0.41061,-0.079008,-0.38503,0.5586,1.1707,-1.201,-0.69085,-0.66551,0.099497,0.45654,-0.15551,0.27808,-0.28298,-0.76757,0.45658,0.099588,0.15049,-1.0736,0.53301,1.1452,0.48217,-0.79309,-0.46158,1.0431,0.074106,-0.027895,-0.94603,-1.4816,0.22701,-0.1299,0.58402,-0.23209,-0.41049,0.45656,0.17604,0.55853,0.76258,-0.35939,-0.41035,-0.58906,0.58413,0.22705,0.048463,0.73704,-0.38499,-0.46142,-0.25748,-0.84398,0.7881,0.88996,0.12502,-0.76748,-0.25749,-0.078984,-0.078984,-0.69105,0.60968,0.63511,0.55861,-0.64002,-0.43595,0.32907,1.0176,0.2015,-0.94608,-0.69115,-0.002448,-0.18101,-0.053433,0.58427,0.45662,0.12501,0.25257,-0.20644,-0.92065,0.43096,0.55866,0.15069,0.27791,-0.30855,-0.97162,-1.0225,0.25262,0.55864,-0.20646,0.048555,0.25262,0.81355,-0.28302,-0.33396,-0.15559,0.023047,-0.18097,-0.6911,1.0687,1.2982,-0.86952,-1.0226,-0.15554,-0.61452,0.58423,0.25257,0.78814,1.3492,-1.2776,-2.0172,-0.76747,-0.13008,1.043,1.094,0.76267,0.76262,-0.79299,-1.7366,-0.18097,-0.15572,0.7881,-0.027925,0.35476,-0.46156,-0.81858,0.099686,0.50758,0.09951,-0.15555,-0.13,0.38005,-0.46145,-1.2776,0.38008,0.25243,0.37994,0.38004,0.96669,0.63514,-0.63987,-1.609,-0.793,-0.053544,1.0686,0.58407,-0.79303,0.60963,-0.38493,0.023127,0.55856,-0.38504,-0.51252,0.32899,0.48205,0.25249,0.86451,-0.94608,-1.3285,-0.74188,-0.10452,0.22701,1.5532,0.1251,-0.69105,0.71169,-0.41043
-0.15549,-0.10447,-0.12999,-0.027956,0.048536,-0.28306,-0.028023,0.3291,0.32911,0.25261,-0.10449,-0.18103,-0.181,-0.12995,-0.23202,-0.25755,0.17606,0.17606,0.2781,-0.053464,-0.18099,0.099564,-0.053488,-0.1555,-0.10449,-0.002467,0.09954,0.35464,0.074038,0.048561,-0.002461,-0.15548,-0.25753,-0.232,-0.18101,0.099534,0.27808,0.15056,-0.18101,0.074057,0.17609,0.2271,-0.18103,-0.41058,0.17609,0.048543,-0.15553,-0.18101,-0.027987,-0.002467,0.15061,0.4822,-0.20652,-0.25752,-0.38506,0.1761,0.2526,0.68626,-0.02798,-0.25755,-0.38507,-0.23201,-0.15549,-0.38503,-0.078953,-0.078977,0.53317,0.40563,-0.35959,-0.078996,0.09957,-0.07899,-0.02798,0.43118,-0.05347,-0.25754,-0.3596,-0.079008,-0.18102,-0.12998,0.074087,-0.15549,-0.078966,0.30364,0.3291,0.17608,-0.48711,0.1761,0.43118,-0.64006,-0.64017,0.68617,0.58417,0.89031,-0.66561,0.12509,-0.3851,-0.10453,-0.23206,-0.30855,-0.94619,0.43121,0.99234,-0.027944,-0.69111,-0.23197,-0.15553,0.02295,0.63506,1.7064,1.324,-1.3287,-0.58907,-0.10445,-0.56359,-1.0738,-0.079008,0.099503,1.3239,-0.30854,-0.61463,0.35461,0.53318,-0.38507,-0.002485,-0.64015,0.15057,0.45665,0.32912,0.12507,0.12508,0.30368,-0.33399,-0.51256,-0.51257,-0.30856,0.048487,0.22706,0.25254,0.15057,0.099564,0.074062,0.074075,-0.053421,-0.053464,-0.078959,0.048531,-0.15553,-0.027987,0.023023,0.023035,0.25257,0.074069,-0.10447,-0.20649,-0.1555,0.17604,0.22705,0.32909,0.048561,-0.20647,-0.28303,-0.12995,-0.078959,0.074062,0.023035,0.25257,0.048543,0.099528,-0.053495,-0.23199,0.25258,0.50761,-0.053427,-0.30849,-0.02798,0.07402,-0.10449,-0.078972,0.17606,0.17607,-0.002436,-0.078966,-0.23199,0.023084,-0.28302,-0.027969,0.048543,0.25257,0.20155,0.12507,-0.02798,0.023041,-0.02798,-0.18099,0.048549,0.12505,-0.002443,0.048561,0.22708,-0.053476,-0.15548,-0.027962,-0.10448,-0.28302,0.023035,0.09951,0.2781,0.048506,0.15055,0.17604,-0.10449,-0.28299,-0.283,-0.51254,-0.10452,0.48208,0.22701,0.12502,0.15056,-0.002485,-0.078996,-0.053451,-0.078959,-0.027969,-0.1555,0.074038,0.02301,-0.30851,0.32913,0.023017,-0.181,0.023029,0.58416,-0.48706,0.25263,0.43104,-0.33396,-0.05347,0.099595,-0.20652,0.35462,0.074051,0.32908,-0.002503,-0.7931,-0.74204,0.278,-0.027998,0.63518,0.94121,-0.18108,-0.56353,0.074044,-0.33402,-0.53796,-0.002479,0.4821,0.66058,-0.10448,0.27809,0.27809,-0.69104,-0.89504,0.45655,0.12505,-0.53804,-0.23195,-0.35954,0.48208,0.66059,0.89006,0.60967,-0.002485,-0.43595,-0.002485,-0.33402,0.22705,-0.15546,-0.97147,-0.15543,0.66058,0.45653,-0.58901,-0.58899,-0.35935,2.6753,0.55847,-2.0937,-1.0735,0.022986,0.15056,0.83909,-0.18103,-0.20649,-0.2065,-0.18101,0.40561,1.0686,1.936,0.53316,-1.6092,-0.79305,-0.30858,0.35453,-0.5635,-0.71651,-0.99713,0.66065,-0.10461,0.048445,2.1654,0.81368,-0.92062,-1.2266,0.68604,-1.3797,-1.0736,0.35456,1.6808,0.32902,-0.74206,0.25264,1.0432,-0.56359,0.023023,-0.51271,1.8082,0.048696,-0.15514,-0.844,-1.7113,-0.13012,0.30347,0.89012,-0.69096,-0.94617,0.099632,1.5024,0.43101,0.55856,-0.18111,-0.079197,0.38013,0.60971,-0.027822,0.25258,-0.10448,-1.7876,-0.48706,0.73696,-0.10449,-0.28302,1.4258,0.83921,0.048604,-0.61452,-0.97152,-0.53809,-0.15558,0.68613,-0.10449,-0.10445,-0.84409,-0.94602,0.35448,1.145,1.0432,0.38005,0.023121,0.25267,0.71171,-1.5328,-1.2267,0.17602,-0.35944,0.048531,0.3036,0.45661,0.099608,-0.38502,-0.38503,0.17614,-0.48715,-0.46163,1.1707,0.89019,-0.79293,-0.30855,-0.56354,-0.15558,-0.43615,-0.56362,1.4514,1.1452,-0.46145,0.12509,-0.69117,0.25255,1.9612,0.048543,-2.9098,0.25274,0.38007,0.50764,0.71163,-1.0738,0.20152,-0.15562,-0.33379,1.5025,2.2164,-0.46159,-1.7115,-1.3795,0.099784,1.5278,-0.30859,-1.3542,-0.48711,0.81349,0.73719,-0.12994,1.1197,-0.6145,-1.3541,-2.1192,1.2729,2.0888,-1.4054,-0.15554,0.58393,-0.46154,0.91584,0.15074,-0.5126,0.89012,-1.1501,-1.9917,-0.028182,0.89026,1.7061,-1.048,-0.35946,0.78808,1.6299,-1.1247,-0.84403,1.4769,0.76249,-1.0483,-1.6857,-2.2465,0.3292,1.5786,0.686,-0.053604,1.6555,0.074081,-0.28285,0.91565,-0.76768,-1.6857,-2.2469,1.0943,1.783,0.50749,2.3435,-0.66552,-1.1499,0.86477,1.2726,-3.4454,-0.41061,0.96669,1.2216,-1.8897,0.83933,0.91554,1.1196,-0.79307,0.15042,-0.43601,0.0741,-0.86979,0.22742,1.7321,1.7573,-2.0684,-0.74217,-1.2014,0.89007,-0.12983,-1.0225,0.48218,-0.43601,1.1452,0.37994,0.93925,0.0977,-0.43599,1.1196,-0.66542,-0.79296,-0.66555,1.9358,0.32916,0.50768,-0.18125,-0.15535,-0.76752,-1.2269,-1.992,0.89017,3.2876,0.73728,0.55857,-0.053592,0.074026,-1.5328,1.2476,0.94131,-1.711,-4.5934,0.8645,0.94124,2.3693,0.96654,1.0685,0.22712,-1.5071,-0.81855,-0.25756,0.60959,-0.43591,-0.33384,-0.66556,0.83903,0.89004,0.58424,-1.3542,-2.0684,-0.33426,1.8084,1.8083,0.81395,-0.76748,-1.5836,0.40546,-0.25744,-0.053573,0.86503,-0.2832,-0.1554,-1.38,1.3491,1.1197,0.9413,-0.027969,-0.33394,0.78822,-0.71652,0.99231,-0.38508,-0.58889,-0.028109,-1.3285,-0.86979,1.2724,-0.64006,-0.46128,2.1654,0.12478,-0.13026,-1.5071,0.48209,1.3494,1.2475,0.35456,-2.2215,-3.114,1.9105,0.048592,0.023096,0.32904,0.6861,-0.027931,-1.2012,-0.51262,0.68596,1.1453,-2.9353,-0.38494,1.0177,0.96667,0.81379,0.32903,-0.53817,0.91551,-0.028078,-0.053329,-0.79282,-0.58918,-0.4105,1.0429,0.584,-1.1752,-0.97151,-0.002301,-0.053684,0.76245,2.9814,-2.5271,-1.6858,-0.15566,0.71154,0.99215,0.30354,0.15051,0.023023,0.38008,-0.53817,0.50771,-0.63986,-0.20647,0.73726,-0.181,-0.8696,-0.002418,-0.18111,-0.3084,0.94096,1.0942,0.40561,0.35466,-0.053586,-1.0226,-0.00224,-1.3541,-0.97178,0.58398,1.7573,0.63533,-0.99708,-1.4563,-0.64019,0.81366,0.22707,0.35459,-0.20646,0.76275,0.048536,-0.079039,-0.23188,-0.23188,-0.23186,0.35446,-0.053653,1.0941,0.074149,-0.61457,0.30356,-0.38516,0.55862,0.17619,-0.30858,-2.2467,0.15051,0.91557,0.48209,0.6098,0.45668,-1.9153,-0.99701,0.27784,1.2218,0.4056,-0.48708,0.073965,0.048543,0.1761,0.25251,0.40577,-1.0736,-0.20647,0.023047,0.63509,0.6861,-1.6602,0.22702,0.66073,0.048506,-0.64013,-0.66569,1.681,-0.28308,-1.3797,-0.18097,0.94122,0.53315,0.50752,-0.053544,-1.8642,0.20175,1.6044,0.37995,-1.0738,0.20143,0.22712,0.76258,-0.61433,-0.76747,-0.81871,0.66065,0.3801,-0.002461,1.3238,0.63499,-1.3796,-0.33406,1.1196,-0.12993,-1.4307,-1.7623,1.2472,1.2981,1.1197,-0.71649,-0.41037,0.94129,0.099521,-1.0482,0.099528,0.53315,-0.10447,0.048384,-0.79304,-0.35958,-1.0733,0.22706,-1.0736,0.60977,0.32914,-0.41057,0.3544,1.2726,0.60955,0.27804,0.12517,0.12507,-2.5528,-1.1757,0.32915,1.7063,1.6552,-0.23181,0.38012,-0.20667,-0.76751,-0.64001,-0.10461,-0.94621,0.60967,0.25261,0.048525,0.20146,-0.43598,-0.92048,0.89019,-0.48706,2.0885,0.099619,-1.2265,-1.7367,-0.43608,1.6041,0.89002,1.2471,-0.58899,-0.94605,-0.078904,0.4822,0.50757,-0.1555,-0.13007,0.02298,0.43111,0.099668,-0.61452,-1.2522,-0.79314,-0.18109,1.0686,0.2015,-1.3541,0.53311,0.6607,0.023059,0.94114,-0.71688,0.43132,-0.41034,0.023047,0.25243,-1.4818,-1.252,-0.15546,1.1453,1.4767,0.40555,-0.81848,-0.66538,0.20163,-0.79308,-0.33402,0.58398,1.7317,-0.20663,0.27812,0.32902,-0.10441,-1.0736,-0.69117,0.30368,0.32905,-0.74199,1.2217,-0.28306,0.38025,-0.23194,0.48191,-1.0991,-0.66545,0.94098,-0.71651,0.86475,0.20152,-0.20667,1.2985,-0.43596,0.15063,0.25256,-0.53814,-0.84412,0.94104,-1.0735,0.22724,1.145,-1.4052,-0.74216,1.5025,0.40567,0.32895,-0.35951,0.53316,-0.053342,0.12514,-1.0992,0.17605,0.40558,0.074038,0.20142,1.0432,-0.94592,0.48246,-1.5838,-0.99721,1.4255,1.2981,1.0687,-0.35929,-0.86958,-0.002412,-0.053482,0.40564,-0.61463,-0.002369,-1.2013,0.81366,0.25265,-0.56345,0.58412,0.22708,-0.46155,-1.0991,0.50754,0.023035,0.023096,-0.79302,-0.15557,0.43118,0.73723,0.32915,0.35456,0.68602,-0.00251,-2.5018,-1.9152,1.3238,2.1142,-0.30846,-0.15545,-0.02792,0.32914,0.099552,-0.61464,-0.10441,0.15062,0.71162,0.32888,-0.12991,-1.2776,-2.3232,0.3036,1.5532,0.43105,0.38005,-0.18098,-0.38505,-0.053531,0.30371,-0.43605,-0.028042,0.55853,0.45658,-0.99712,0.40571,-0.76758,-0.38495,-0.1045,1.2473,0.073995,-0.58902,-1.4306,0.45648,0.048641,0.89002,0.40539,0.048573,-0.38515,0.17619,0.83919,-0.436,-1.6347,-0.25745,0.45673,0.50757,0.3035,-0.81857,0.55866,0.58402,-0.053531,-0.12987,-0.30844,-1.0228,-0.99724,0.099693,0.20162,0.023035,1.9102,0.15057,-0.078928,-0.9971,-0.41051,-0.28302,0.66076,-0.25753,0.50764,0.50772,-0.33404,-0.15559,-0.51252,0.048671,0.074038,-0.079277,-0.84412,0.99216,1.2726,-0.18083,-1.8131,-0.25743,0.89007,0.99213,0.43103,-0.1809,-0.33399,-0.15556,-1.2522,-1.3286,0.12509,0.71163,1.2217,0.8392,0.48226,-0.92058,-0.23199,-0.02792,-0.99723,0.89013,-1.0736,-1.201,0.7115,1.3236,0.15054,-0.63997,-0.74199,-0.10453,0.71171,0.15065,0.3037,0.40551,-0.35954,-0.12989,0.09954,-0.94617,0.20152,0.15042,-0.6401,0.50762,-0.84437,0.17619,0.20153,2.0634,-0.12982,0.27816,0.073965,-0.35954,-0.053342,0.074185,-1.0992,-0.64018,0.30349,-0.002443,0.38005,0.048463,-0.97161,-0.078861,0.25253,-0.53803,0.32904,1.0942,0.32912,0.91574,-0.997,-0.41055,-0.35948,-0.66558,0.35443,-0.56368,-0.3342,0.66067,-0.20646,1.5533,0.074106,-1.2268,-0.28287,1.1963,0.89021,-1.0481,-1.0226,0.94128,0.27811,-0.64001,0.022931,0.15047,0.38001,0.30364,-0.92056,0.20157,-0.79321,-1.3797,0.91576,1.4512,0.58406,-0.2321,-0.61465,0.6607,-1.2011,-0.30843,-0.002485,0.9157,-0.027803,-0.25754,-0.028023,-0.81857,0.9412,0.66058,0.43108,1.1962,-1.1245,-2.5271,0.71154,0.63514,0.43105,-0.64026,0.73723,0.12494,-0.69111,0.78818,0.71162,-0.38497,-0.38472,0.25261,-0.46169,-0.99712,0.023255,0.91573,-0.97179,0.17608,1.1707,0.76261,0.83908,-1.1244,-2.0682,0.91573,-0.10466,0.20166,1.1452,-0.10447,-1.7113,-1.3798,1.5022,-0.18096,-0.027901,0.073959,-0.51246,-0.81859,0.89033,0.91557,-0.79297,-1.1756,0.27809,-0.30873,-0.10431,0.17612,0.81363,0.81363,-0.64009,-0.23203,-0.053555,0.43115,-0.13002,-0.97147,0.38019,-0.28298,0.30361,0.27809,-0.23201,-0.12993,-0.35951,-0.002546,1.0177,0.176,0.53317,-0.053384,0.048402,-0.15563,0.96674,-0.33403,-0.99706,-0.81865,0.5587,-0.35948,-0.18088,-0.66541,0.43106,0.81341,1.094,-0.28283,-0.002423,0.048536,1.1961,-0.18105,-0.97158,-0.63995,-0.18092,-0.33401,0.023005,-0.02806,-0.25746,-0.28318,-0.027993,0.58432,1.0943,0.27814,-0.20657,-0.33412,0.76261,-0.48697,-0.33409,0.76279,-0.079112,-0.13003,-0.38499,0.81373,0.048629,-1.1246,-1.4816,0.81352,-0.053573,-0.10459,1.7828,-0.46153,-1.048,0.30365,0.32915,0.22693,0.40563,-0.053476,-0.0791,-0.7166,-0.41049,0.38006,-0.35949,-1.201,1.0942,1.0942,0.68602,0.45659,-0.89501,0.048653,-0.15549,-0.028029,-0.38503,-0.48709,-0.56359,0.09951,0.91579,0.22704,0.07402,0.50753,1.4255,-0.18098,-1.609,-2.4252,0.55866,0.30351,0.71163,0.78804,2.2417,-0.97154,-1.7877,0.89011,-0.30854,-0.436,-0.10453,1.0942,0.7116,0.94103,-1.4561,-0.71654,-0.12998,1.1196,0.3292,-0.2575,0.2271,0.099399,0.048653,0.53322,-0.38506,-0.41051,0.76266,-0.84387,0.55852,0.53293,-0.74227,0.4823,-0.74211,-0.35936,-0.56336,-0.1044,0.38001,0.25254,1.1197,0.91568,0.22704,-0.35951,-1.6092,-0.46169,0.022961,-0.027931,0.78815,0.91572,0.20155,-0.027871,-0.18089,-0.38503,0.27821,0.68626,-0.10458,-0.33415,-0.30849,-0.2319,0.2015,0.023072,-0.66545,-0.002503,-0.13019,0.6095,0.50757,0.58414,0.63526,0.20161,-0.6911,-0.84415,-0.20635,-0.53801,0.12495,0.66062,0.91581,-0.56345,-1.0991,-0.35948,0.73706,0.86462,-0.23215,-0.69108,0.73722,0.53312,0.15051,-0.79315,0.3291,-1.3541,-0.33396,0.9157,-0.12999,0.50762,0.35454,-0.28307,-0.41052,-0.7166,1.2471,0.43112,-0.027901,-0.334,1.3238,-0.20646,0.25234,-2.8077,-1.3031,1.8849,0.58417,0.32908,0.22705,-0.53831,-0.15553,-0.92063,0.76277,0.58421,-0.43592,-0.2575,-0.25751,0.63509,0.60961,0.63512,-0.46155,0.048604,0.8137,-1.1501,-2.7315,0.12498,0.45661,0.8392,0.9666,-0.48688,-0.027907,0.43093,-0.92068,0.32912,0.43103,0.53314,0.1251,0.12509,-0.027882,0.20154,-0.28298,-0.56372,-0.41047,-0.99706,-0.23194,0.53313,0.71168,0.22703,-0.53821,-0.00243,0.38014,1.2217,0.15064,-0.33416,-0.69126,0.2782,-0.15533,0.099686,-1.2265,0.63497,0.5074,0.023072,-0.89497,-0.35952,0.30363,0.023152,-0.9973,0.73706,0.60964,0.17604,1.2729,0.3545,-0.078898,0.25249,-0.18094,-1.4306,-1.2776,-0.1553,0.20151,1.1705,0.94106,-1.4051,-0.002387,0.023059,0.45634,0.12518,-1.0481,-0.66554,0.7117,0.55859,0.58403,0.048506,-0.58913,0.81353,0.91563,0.38016,-1.864,-0.51258,-0.51258,-0.53804,0.99229,-0.027852,-1.2012,0.32895,0.53309,0.66072,-0.23205,0.35463,0.07402,0.35454,-0.92056,0.40563,-1.4306,0.86469,1.1196,-0.43613,-0.6144,-0.002405,-0.20654,0.048555,0.6096,0.099436,-1.0991,0.30352,0.89021,-1.0478,-1.9152,1.1708,0.76273,0.12491,0.73698,0.30354,-0.89515,0.50747,1.2728,-1.7876,-0.61445,0.38002,0.022925,-0.28304,1.3748,-0.58897,-0.66547,-0.18101,-0.41039,-0.10435,0.2524,0.60958,0.48189,-0.69106,-0.9458,-0.028018,1.7318,1.4003,0.81372,-1.0227,-0.64018,-1.2522,-0.66536,1.3749,-1.0991,-1.6346,0.35461,1.8081,0.3798,-0.76756,0.22715,0.40555,1.1962,0.32908,-1.0225,-0.5382,0.38011,-0.33407,-0.28282,-1.0224,0.71158,0.53309,0.048445,0.35468,-1.0482,-0.8441,0.22718,0.32892,1.0687,0.6096,-0.053433,0.48208,0.78814,-0.89487,-0.30844,-0.23222,-0.18117,1.5534,-0.76745,-1.1756,-1.7111,1.3493,0.22683,-0.002356,0.38001,0.32905,0.074093,-0.25739,0.99213,-0.30856,-1.3541,-1.6345,1.0177,1.7571,0.099418,-0.99714,0.96674,0.55851,-2.4767,-0.8184,-0.79296,0.60977,0.66061,1.8845,-0.41044,-0.078825,-0.97144,0.099491,1.4257,0.55855,-0.5383,-0.69119,-0.20632,-1.1758,-0.41035,0.86472,-0.71637,-0.028096,-0.97177,0.89015,2.2673,0.60945,-1.0993,-0.51226,0.4822,-0.30869,0.40583,0.12501,0.25254,0.12513,-1.5325,-1.9408,0.12486,0.94103,0.91552,-0.41071,0.45667,0.53323,0.60971,0.099637,0.40566,-0.79309,-0.76763,-0.61447,-0.35957,-0.69122,-1.609,0.68611,1.7829,0.17606,1.8335,-0.71668,-1.8388,-0.23195,0.43134,0.09957,0.38011,1.0432,0.94138,-0.41078,-2.3745,0.71202,-0.078654,-1.0481,-0.43615,0.22692,-0.66562,-0.027998,-0.23239,2.2929,0.27812,-0.81851,-0.69104,0.40571,0.45648,0.099534,-0.43587,-0.81859,0.15044,-1.7109,0.17597,0.58405,0.94122,-0.81859,-1.4309,0.3801,0.45681,1.2218,1.7571,0.5587,-1.4053,0.83913,0.48205,-1.0735,-1.6093,1.63,-0.71647,1.069,0.7884,0.048298,-1.1759,-1.4818,0.66056,1.1961,-1.3796,-0.33399,0.50759,0.78816,0.55878,0.6607,0.83906,0.12492,-0.41056,-1.2011,0.17612,-0.283,-0.51248,-1.0227,-0.38521,1.8084,-1.1755,-1.5581,0.45652,-0.43598,1.6551,1.4,-0.99712,-0.69083,-0.35946,-0.43604,1.0175,0.4821,-0.66542,-1.3031,0.099588,-0.51248,1.2473,0.60967,-0.2064,0.073971,-1.38,1.0941,2.1144,-0.74195,-2.9608,0.38008,2.242,-0.89512,0.48203,-0.15552,0.2016,0.45667,0.45672,-0.94598,-0.41057,-0.28305,-0.028085,-0.28327,1.7062,-0.81844,-1.6091,0.40571,1.0686,0.12499,-0.86956,1.0686,0.20161,-0.25755,0.20152,0.099442,0.099699,-0.41042,-1.0735,0.30365,0.83899,-0.66562,-0.33422,-0.41046,-0.23199,-0.10447,0.89021,1.9105,1.2983,-0.30839,-2.4508,-0.53807,1.7062,0.5076,0.4309,-0.66559,-0.71652,-0.027803,-1.1501,-0.99723,0.86444,0.278,2.1401,0.04858,-0.23193,-1.0481,-0.30847,-0.58903,0.27808,-0.28315,-0.30848,0.76258,0.73728,-0.002448,-0.41046,0.15053,-0.079235,-0.18099,-0.002436,0.22717,0.22715,0.43115,0.91561,-1.0739,-1.048,-1.3029,-1.0225,0.60962,1.8847,0.37995,0.1759,0.43104,-0.51263,0.40566,-0.078837,-0.97147,-0.3851,0.63532,-0.33398,-0.89523,-0.079118,-0.8185,-0.97155,0.94106,0.099608,0.83923,2.3692,0.60969,-2.0937,-1.0992,2.3183,-1.0991,-0.4105,0.27822,-0.33399,-0.30858,-0.28303,-0.23222,0.048506,0.53322,0.89008,0.30366,-1.5072,0.3292,-0.20649,-1.0484,1.0942,0.78841,-0.078923,0.022961,0.022901,0.1506,0.40557,0.99244,0.023065,-1.3285,-0.97166,0.22713,0.45654,0.48195,1.2981,-0.89497,-0.48711,0.278,-0.53818,0.53293,0.15064,-0.12988,-0.23193,0.81383,-0.053397,-0.58891,-0.33404,-2.0428,0.32895,0.50741,0.91551,0.17599,1.0178,0.048659,-0.48695,-1.4816,-0.43615,0.30341,0.55852,0.66076,0.048555,-1.0482,-0.35946,0.38,-0.18095,0.78814,0.048634,-0.20647,-0.58907,-0.027889,-0.13002,0.68599,0.3291,-0.81846,-0.33403,1.1963,-0.028042,-0.53803,-0.23199,0.15053,-0.51252,1.8592,1.2469,0.45672,-1.2009,-0.84387,-0.10435,-1.5072,0.91564,0.76257,0.43098,0.12503,-0.18098,0.78824,-0.38507,-0.33412,-0.2065,-0.38484,-0.5379,0.02295,0.788,-0.46144,-0.23207,1.1196,-1.2013,0.81375,0.12507,0.20156,0.048512,0.63512,-0.38499,-0.53783,-0.027895,0.2015,0.45655,0.5075,-0.81866,-0.30843,0.17622,0.20149,0.22705,1.3747,-1.0737,0.38024,-0.89494,0.43104,0.5074,-0.84412,-0.76766,0.94135,0.38019,0.45666,0.27826,-0.41052,0.099345,0.32903,-1.0227,0.099552,-0.38501,1.4767,1.2981,-1.9408,-1.3032,1.7828,0.53325,-1.5324,-1.354,0.89015,1.0941,-0.028018,-0.97174,0.22699,0.63509,-0.41052,-0.84395,0.35467,0.45651,-0.38507,0.78808,1.0686,-0.51246,-1.2521,-0.74208,0.40559,0.91568,-0.18102,-0.48691,-0.48693,0.58428,-1.0994,-0.053745,1.7573,0.1507,-0.46145,0.15053,0.40555,0.60964,-0.46156,0.17605,-0.61451,-0.58901,0.81364,0.53304,-0.97153,0.074069,0.25275,-0.07891,-0.7933,-0.28302,0.12509,0.32916,0.9157,0.66072,0.17606,0.073892,-0.18103,-0.74194,0.17602,0.25241,1.298,0.099686,-0.84401,-2.1957,0.32918,0.25263,-0.25749,-1.048,0.22713,0.43107,0.55848,0.12498,0.27809,-0.20645,1.0176,0.66068,0.2526,-0.94611,-0.79319,0.22704,-0.18106,0.45664,0.50756,-0.79304,1.2218,-0.48699,-0.33382,-1.0991,-1.5073,1.0433,0.58416,0.55864,1.4001,0.45651,-0.6656,-0.23208,0.83916,-0.15552,-0.81857,0.0741,0.60947,-0.6657,-0.43602,-0.078892,-0.92043,-0.46133,0.099699,0.30343,0.38013,-0.15548,0.12494,0.35445,0.07394,0.073959,0.20153,0.27807,-0.25731,-0.74202,0.48206,0.15049,-0.20653,-0.28295,0.63503,-0.61451,-0.74196,-0.51254,0.63525,0.12509,0.32899,0.35459,0.099461,0.074062,-0.56358,-0.61454,0.22711,0.15051,0.22693,-0.6657,-0.5379,1.4002,0.55864,-0.86944,-0.86948,0.8902,-0.1299,-0.53808,0.09951,-0.2066,0.40564,-0.28304,0.55864,0.71159,-0.92072,-1.1501,0.45658,0.50769,-0.84403,0.99223,0.35448,-0.66561,-1.0481,0.074038,0.73714,0.68619,0.074179,0.35467,-0.10445,-0.71658,-0.28309,-0.002485,0.96674,0.37995,-0.38499,-0.5635,-0.94607,0.53302,-0.25748,-0.89513,-0.20661,0.91571,0.81364,0.68622,-0.6144,-0.89508,-0.64021,1.1705,-1.2011,0.53305,1.0176,-0.18081,-0.25748,-0.46163,-0.51253,-0.05339,0.68615,0.40566,-0.20644,-0.23201,0.048629,0.2781,-0.15556,-1.0737,0.022974,0.48219,0.55873,0.12504,0.074051,0.074069,0.048549,-0.35954,-0.58902,0.048512,-0.46162,0.76266,-0.94612,-0.25746,0.53306,0.83905,0.17606,0.02309,-0.58901,-0.43595,-0.30857,0.048567,0.35464,-0.18093,-0.74206,1.1198,-0.002534,-0.58933,-0.20661,0.30359,0.91581,0.12499,0.048647,-0.5381,1.2729,0.73698,-2.0174,-1.9663,-0.61447,0.63521,0.96674,-0.20644,-0.002491,0.63514,1.0178,0.12493,-0.35954,0.58415,0.12516,-1.4817,-0.69109,0.9667,-0.30845,0.60965,1.1706,-0.35955,-0.35938,-0.079033,-1.1248,0.022925,0.66073,-0.58903,0.60976,0.048714,-0.84426,-0.58894,0.43104,0.6095,-0.02792,0.3036,-0.66551,-0.99701,0.32903,0.58405,0.048347,0.8902,0.40555,-0.385,-1.2523,-0.10438,0.78829,0.27816,-0.48697,-1.3542,0.022992,1.349,-0.84409,-1.201,-0.46155,0.88993,1.4257,1.0942,-0.002454,-0.20643,0.45661,-0.61455,-0.51257,-0.64011,0.17611,-0.15545,0.43112,0.25256,-1.0481,-0.86946,0.58411,0.17585,0.099583,0.43106,1.1963,0.023017,0.53303,-0.99712,-0.74198,-0.69104,0.6352,1.3491,0.91549,-0.58903,-1.6345,-0.92047,0.35456,0.81353,0.89013,-0.33393,-0.69105,-0.028042,-0.053482,0.074111,0.99215,0.86467,-1.7368,-0.002479,0.12507,-0.61444,1.0432,1.2471,0.074111,-1.1502,-0.79297,0.023078,-0.30856,0.89026,-0.13003,-0.53817,-0.13002,-0.23191,-0.027913,0.27798,-0.56354,1.1197,1.1706,-1.0482,-1.2776,1.4003,-0.33391,-0.00251,-0.027938,0.68617,-0.38492,-0.13007,0.22716,-0.38511,-1.3797,-0.10442,1.7318,-0.64001,-1.3797,0.22688,1.5021,1.1452,0.17629,-0.48696,-1.3286,-0.69111,-0.002448,0.40562,0.50767,-0.23197,0.048634,1.0176,0.55847,-0.74183,-1.5329,-0.58924,0.023035,-0.12996,1.0177,0.15056,0.40563,0.176,-0.20639,-0.35957,-0.28302,-0.51255,0.66073,0.55854,-0.946,-1.4051,1.1708,1.3748,-1.1248,-0.92087,0.99221,0.89019,-1.7626,-0.053568,0.86483,0.53324,0.5843,-0.053439,0.83922,-1.1244,-0.71653,0.073928,-0.43618,-0.30851,-0.079045,0.94098,1.3236,0.20152,-0.35939,-0.86957,0.25272,-0.53804,0.048506,1.4003,-0.18094,-1.3797,-0.53795,0.099626,-0.56358,1.3491,1.0942,-1.0737,-1.2775,-0.33414,1.0685,0.2781,-0.15548,0.99222,1.0432,-1.048,-0.20643,0.50766,-0.33408,-0.89505,-1.5073,-0.028036,1.5534,0.50757,-0.64001,0.58414,1.5787,-2.6803,-3.0375,-0.002472,0.63511,1.4512,1.0688,0.40572,0.15054,-0.18101,-0.48721,0.40548,0.53314,-0.10443,0.35452,0.78819,-1.1757,-1.4052,0.32911,-0.69096,-0.53786,0.43107,-0.46158,-0.079155,1.2726,-0.053629,-0.18079,-0.92046,0.91565,0.48209,-1.7876,0.63512,2.3948,-0.35945,-1.7879,0.1504,0.9411,0.30361,0.58423,0.074216,-0.53794,-0.81838,-1.2266,0.32899,0.099454,0.25261,0.27801,-0.43614,0.099454,-0.028023,2.0888,0.12507,-1.5327,0.15052,-0.23208,-0.30849,0.27817,0.96672,0.04858,-0.97162,-0.078977,0.63507,-0.15538,-1.0989,-0.74216,0.53295,0.20147,2.0122,-0.71647,-1.0991,-0.63998,0.60963,0.2016,0.38006,0.96659,1.7317,-0.74206,-1.1246,-0.5635,-0.283,0.048512,-0.2576,-0.30859,-0.20656,1.0434,0.38014,0.38008,-0.33409,0.76266,-0.56364,-1.0993,-0.20644,1.2219,1.0177,-0.81855,-1.1757,-0.25726,0.074197,0.3543,-0.92067,0.17617,0.45656,0.048438,-0.002637,0.76258,-0.89509,0.2527,0.099583,0.074069,-0.41051,-0.12995,-0.027944,0.048506,0.40564,-0.76761,0.12499,-0.20653,-0.66556,-1.2268,1.1961,1.4513,-0.33394,0.22714,0.53333,-1.4309,-1.0484,0.15064,0.94128,2.395,-0.28317,-0.20641,0.17611,-0.64025,-1.3286,-1.0227,-1.1755,-0.7419,1.1962,1.5788,-0.334,0.78802,0.43099,0.048512,-0.23193,-0.81852,0.40551,0.63521,0.73707,0.15072,-0.35939,-1.4307,-1.2779,0.89005,0.66066,-0.027748,-0.99703,0.76264,-0.25768,1.3748,0.83909,0.32907,0.074013,0.12504,-0.76753,-0.25742,-0.48718,-0.079045,-0.00235,-0.053384,0.48218,0.96659,-1.6856,-1.0225,0.20155,0.43109,0.20149,0.43112,0.60957,0.71157,-0.38486,-0.74199,0.35459,1.2726,-1.6094,0.09957,0.73723,-0.33396,-0.89512,-0.58901,-0.10437,0.38011,-0.58906,0.15052,0.91567,0.68616,0.32913,0.023084,-0.56362,0.58407,-0.33408,-1.201,0.45659,-0.79309,0.32913,0.78813,-0.078923,0.32904,0.91565,-0.2575,-0.43611,-0.99708,0.22712,-0.41056,0.63518,-0.181,0.35461,0.2015,-0.10447,-0.71653,-0.20649,0.50757,-1.048,-0.38494,0.58402,1.3236,0.30354,0.27805,-0.28291,-0.6655,-0.538,-0.86953,0.176,0.78816,-0.15563,0.17612,1.5533,-0.64006,-0.8951,-1.1755,-0.053378,0.27802,0.83923,-0.38503,0.45649,0.43095,0.27802,1.3237,-1.4052,-0.97149,-0.053415,-0.9206,0.55857,0.66061,-0.94603,-0.33395,0.58398,0.48205,0.63515,-0.30852,-0.69098,-0.38489,1.1708,-0.3342,0.125,0.15055,0.43116,-0.69111,-0.43595,-0.20641,0.073995,-0.79311,-0.99723,1.9613,1.7827,-1.8132,-1.5581,0.48198,1.2728,0.66059,0.68611,-0.66546,-0.86963,0.074111,0.60973,-0.25754,0.9411,-0.76767,-0.66553,0.25257,-0.51241,0.17612,1.0687,-0.43607,-1.354,-0.71654,0.83907,0.27812,0.30353,0.71162,0.89017,-0.027889,-0.18098,-0.94633,-0.30856,-0.18093,-0.078923,0.15069,0.25278,0.43104,-0.69122,-0.23202,-0.97153,0.50752,1.3748,0.20154,-0.97169,0.35461,0.023201,-0.46147,0.81362,0.53304,-2.2468,-0.002534,-0.15543,0.9667,1.6552,-1.0736,-1.2521,-0.25755,1.1451,1.3237,0.89009,-0.35953,-0.25743,-0.20646,-0.94609,-0.46146,-0.12991,-0.46155,0.43108,0.25256,-0.28297,-0.13001,1.2981,0.15058,-0.86957,-0.20646,-0.66553,0.12501,-0.13004,0.38023,1.0686,1.0941,-0.15549,-1.5326,-2.8587,0.86451,1.4512,1.0687,0.38011,-0.2321,-0.7931,0.25251,0.38003,0.20167,0.048622,-0.33395,-1.5325,-0.92051,0.17611,-0.053549,1.4258,0.43101,-0.89507,0.20138,1.1707,-0.002546,0.20164,0.15057,-0.10445,0.55862,0.60965,-0.97157,-0.15553,-0.3596,0.40551,-0.20638,0.53311,-1.0738,-0.9969,-0.20632,1.8591,1.4258,0.48211,0.17616,-0.92051,-1.3287,-0.56365,0.55852,0.76248,1.0687,-0.33389,-1.4051,0.073989,0.45651,0.12504,0.22711,-0.053446,-0.028018,0.099686,-0.25762,1.8084,0.89009,-1.0992,-1.5074,-0.35942,0.074062,0.53331,1.0434,0.099485,-0.38499,-0.38516,0.27808,0.43103,-0.86973,-1.3284,-1.3288,0.73708,1.7061,1.3493,0.43129,0.35483,-0.38486,-0.30851,-0.23217,-0.86977,0.94106,-1.4053,-2.7312,-0.86955,1.5277,1.1706,2.1652,1.2217,-0.64011,0.76289,0.02323,-2.1449,-0.12996,0.68627,0.40565,0.023072,-0.46167,0.81368,0.482,-1.5582,-0.69094,-0.053446,1.2216,-0.487,-0.33397,0.86477,-0.46151,-0.35968,0.073971,-0.25748,0.68635,1.5277,-0.079057,-2.2469,-0.99704,0.30363,1.3238,1.2727,0.53303,0.048463,-0.25744,-0.84408,-0.25741,-0.23201,0.35462,-0.28295,-0.97155,0.20165,0.38009,1.2217,0.17605,-0.9209,0.2781,0.71171,-0.078941,-0.76755,0.45674,0.55864,-0.64012,-1.7113,0.38003,-0.053384,0.53313,1.0942,-0.10447,-0.18098,-1.0991,0.37993,0.60962,-0.23204,0.27815,1.2218,-0.84405,-0.33404,0.35447,-0.94605,-1.15,0.1506,0.227,0.30353,-0.028127,0.86463,-0.35951,0.32924,1.2221,0.63509,-1.6092,-0.81862,-0.053616,-0.15557,-0.078959,-0.027993,0.12513,-0.7166,0.83923,1.0176,-0.23203,-0.35951,-0.66556,0.25257,0.38005,-0.56354,-0.81863,1.4003,-0.71649,-0.71646,-0.13001,0.3289,0.099406,-0.078739,-0.53796,0.94112,0.66057,0.38019,-0.4105,-0.10455,-0.053372,0.17603,-0.51255,-0.51256,0.43099,1.4256,0.50769,-1.1245,-0.63996,-0.23199,-0.53807,0.81379,-0.079051,-1.0484,0.22702,0.86461,0.27822,0.17613,0.78841,0.60954,0.35448,-1.9407,-2.8843,1.3237,1.7825,-0.79304,-1.6856,2.0124,0.20162,0.60967,-0.028042,0.63511,1.0431,-0.51253,-0.2575,-0.41057,-1.2012,-0.46149,-0.23182,-0.41042,0.32897,0.27799,1.6044,0.32915,-0.58913,0.66069,0.20155,-0.25756,-0.9206,-0.23203,0.7626,-0.89499,-0.51263,0.58419,-0.2575,0.32915,0.66065,-0.002443,0.76257,-0.18106,-1.15,-0.12994,-0.30845,-0.84404
