-0.20649,-0.12997,0.023059,-0.002485,-0.053488,-0.002467,0.2526,0.32908,0.099546,-0.078972,-0.33402,-0.18098,-0.053476,0.17605,0.12507,0.048543,0.15055,0.17604,0.074038,-0.15548,-0.25748,-0.15546,-0.10447,-0.027974,0.22707,0.074038,0.12505,0.22706,0.17604,-0.078977,-0.078984,-0.18095,-0.10445,-0.23198,-0.51252,0.048518,0.40557,0.32908,0.27808,0.099546,-0.053476,-0.25752,-0.30852,-0.18099,-0.002467,0.15055,0.32908,0.048525,0.023047,-0.002454,-0.078953,-0.002448,-0.2065,-0.232,-0.078966,-0.027993,0.20155,0.22707,0.20159,0.048555,-0.23202,-0.232,-0.283,-0.027969,0.023035,0.25256,0.30356,0.53312,0.27804,0.20155,-0.35947,-0.5125,-0.28298,-0.002491,0.12505,-0.12999,-0.15548,0.099552,-0.07899,0.20154,0.27805,0.22707,0.15057,-0.18099,-0.20649,-0.12996,-0.053464,-0.053476,0.17605,0.15057,-0.2065,0.023035,-0.078984,-0.30853,0.12505,0.15056,0.048536,0.12505,0.12505,-0.10447,-0.23199,-0.4105,-0.56354,0.20152,0.55857,0.38007,0.12505,0.023059,0.023059,-0.02798,-0.30849,-0.51252,-0.33405,0.30358,0.17611,-0.13001,0.12504,0.023029,-0.35952,0.43106,0.3546,-0.15548,-0.10449,0.12504,0.15057,0.15053,-0.18098,-0.33398,0.048555,-0.078959,-0.18101,0.048543,0.15057,0.0485,-0.15549,-0.053446,0.20155,0.12505,-0.027956,-0.027944,0.074038,-0.2065,-0.30849,-0.23198,-0.027998,0.048543,-0.002454,0.48209,0.099528,-0.436,0.074033,0.45661,0.20155,-0.20651,-0.35949,-0.12998,0.074057,0.023023,0.17609,0.32907,-0.18097,-0.30852,-0.3085,-0.15547,-0.053446,0.17607,-0.027969,0.25254,0.22704,0.12506,-0.002485,-0.078977,-0.002461,-0.23196,0.023047,-0.18098,0.43107,0.45656,0.35459,-0.25745,-0.436,-0.41052,-0.078984,-0.078972,0.48205,0.12504,0.15057,0.3801,0.17604,-0.46149,-0.64003,-0.38502,0.074033,-0.15547,-0.02798,0.074038,0.48209,0.86466,0.58408,0.074013,-0.43602,-0.48699,-0.078935,0.048518,-0.053495,-0.078959,-0.10446,0.023029,0.023029,-0.002448,-0.027974,0.20155,0.023023,-0.2065,-0.20646,-0.10444,-0.027969,0.048525,-0.002461,0.099559,0.48206,0.48208,0.63506,-0.053476,-0.41046,-0.53798,-0.33401,-0.28298,-0.23197,-0.15546,0.32902,0.099521,-0.23199,-0.10448,-0.30851,0.048573,0.71161,0.55855,0.12504,0.023047,-0.38499,-0.12996,0.099546,-0.027974,-0.41049,-0.41051,-0.10445,-0.002454,0.099564,0.048536,-0.002479,-0.1045,-0.079021,0.50755,0.27806,-0.38498,0.074044,0.074057,-0.002454,-0.053451,-0.078977,-0.61455,-0.33401,0.048567,0.38009,0.25256,0.12503,-0.15547,-0.027938,0.40558,0.45656,-0.002491,-0.48704,-0.64004,-0.18096,0.30359,0.55861,0.38008,-0.10446,-0.66551,-0.79304,-0.46151,0.25256,0.71158,0.68609,0.40558,0.35454,0.22706,0.32913,-0.078972,-0.43602,-0.81858,-0.51252,-0.23198,0.15058,0.17606,0.15056,-0.002479,-0.002461,0.023047,-0.053464,0.074038,0.32907,0.38003,0.048543,-0.15548,-0.30851,-0.232,-0.027969,0.32908,0.048536,-0.002485,-0.18101,-0.283,-0.41047,0.32908,0.45658,-0.12998,-0.43597,0.17605,0.25256,0.43106,0.25254,0.20152,-0.18098,-0.33399,-0.33399,-0.027962,-0.078984,0.25258,-0.18098,-0.28297,-0.10447,0.12501,-0.10449,0.099577,0.35458,0.32906,0.25256,-0.07899,-0.23199,-0.10447,-0.436,-0.10447,-0.053464,0.20155,0.15054,0.12505,-0.078972,0.40559,0.048518,-0.33396,-0.35947,-0.027998,-0.027974,-0.12995,0.20153,1.2216,0.12506,-0.64001,-0.46151,-0.15546,-0.15547,-0.053464,0.12502,0.27805,0.17608,-0.002454,0.22705,0.12504,-0.18097,-0.38501,0.048543,-0.053476,0.15054,0.099534,0.023029,0.023059,0.2016,0.12509,-0.25748,-0.28301,-0.48706,-0.12999,0.12505,0.45658,0.38005,0.35458,0.45664,-0.002448,-0.13001,-0.385,-0.48702,-0.334,-0.18098,-0.10449,0.22707,0.17606,0.66057,0.30356,-0.28297,-0.61451,-0.078984,0.048549,-0.053451,0.27805,0.22705,0.27808,0.43108,0.38007,-0.385,-0.66555,-0.46152,-0.15547,-0.2575,-0.10451,0.4056,0.27813,0.63511,0.12504,-0.30852,-0.18099,0.30355,-0.2065,-0.10445,-0.20649,-0.10449,0.12506,0.15053,0.22707,-0.10448,-0.25749,-0.053476,0.25256,-0.12998,-0.18097,-0.02795,0.12503,0.074033,0.048549,0.15057,0.35459,0.074044,-0.3595,-0.385,-0.25751,-0.2065,0.32907,0.27809,0.86458,-0.51252,-0.25749,-0.053476,0.20155,-0.61451,0.27808,0.60961,0.074057,-0.51252,-0.53801,-0.10448,0.27808,0.27808,0.15052,0.27805,-0.002454,-0.38497,0.099534,0.099546,-0.1555,-0.15546,-0.15548,-0.10452,-0.10452,-0.053464,0.48211,0.15057,-0.078953,0.074044,-0.20647,0.048549,-0.12999,-0.028005,0.17604,0.12507,-0.18097,-0.027987,-0.23203,0.20159,0.32908,-0.20649,-0.334,0.22705,0.12505,-0.28298,-0.1045,0.65874,-0.05531,0.021195,0.046696,0.22705,0.35459,-0.12994,-0.12998,-0.46151,0.099521,-0.15547,0.07402,0.27808,0.048543,-0.33399,-0.25748,-0.30849,-0.334,-0.53798,0.40555,0.73702,0.55855,0.20155,0.22705,0.048573,-0.28294,-0.30849,-0.15544,-0.35948,-0.002461,0.20155,0.2015,-0.20652,-0.38498,0.074057,0.099534,0.20159,-0.18097,-0.28301,0.15053,0.074002,0.22699,0.2016,-0.10447,-0.10449,0.2526,-0.61449,-0.20649,0.099534,0.53307,0.43106,-0.2575,0.17607,-0.25749,-0.33396,-0.33398,0.074038,0.43109,0.22704,0.099534,-0.027969,-0.027969,0.074033,-0.053446,-0.28297,-0.283,-0.002485,0.12504,0.099546,-0.027969,-0.15544,0.12504,-0.027969,0.20159,0.099521,0.20158,-0.15551,-0.15549,-0.436,0.099534,0.32906,0.25259,-0.002467,-0.30847,0.45656,-0.002443,-0.38499,-0.15551,-0.20649,-0.027962,0.099552,0.099528,0.048536,-0.15549,0.35459,-0.002436,-0.30849,-0.002461,-0.0535,0.048555,0.099552,0.12504,0.20154,-0.232,-0.20644,-0.053464,-0.28301,-0.10445,0.27805,0.50755,0.20153,-0.12999,-0.33398,-0.18097,-0.12997,0.12507,-0.02795,0.09954,-0.436,-0.25748,0.55858,0.38004,-0.027969,-0.10447,0.023059,-0.25748,-0.20649,-0.23199,-0.25748,0.2271,0.58405,0.17603,0.27808,-0.053495,-0.15548,-0.027956,-0.12995,-0.23195,-0.35953,0.15053,0.27803,0.22704,0.22706,-0.15547,-0.15546,-0.15548,-0.18098,0.099528,-0.002461,-0.20647,0.25254,0.15054,0.099564,-0.20648,-0.15549,-0.15547,-0.10448,0.45658,0.30357,-0.10448,0.17607,-0.10445,-0.33398,-0.4615,-0.33395,0.30353,0.2015,-0.05347,-0.41049,0.43104,0.45654,-0.10447,0.27803,0.023047,-0.20646,-0.61451,-0.25748,0.17607,0.32907,0.35454,0.09957,-0.3085,-0.10449,0.023054,0.074033,-0.20648,-0.18095,-0.05347,-0.02798,0.048536,0.15054,0.023029,0.099528,-0.13,-0.002461,0.09954,0.12505,0.074062,0.074038,-0.027969,-0.18098,-0.079014,0.048531,-0.25746,0.099546,0.2781,-0.027938,-0.58901,-0.053446,0.09954,0.30352,0.099528,-0.07899,-0.15548,0.20157,0.15053,0.35458,0.023029,-0.30851,-0.10446,0.074044,0.074044,-0.41052,-0.23197,0.023041,-0.20647,-0.10444,-0.027969,0.35454,0.30355,0.09954,-0.2575,0.048543,0.40557,0.55858,-0.15543,-0.487,-0.33402,-0.28297,-0.25749,-0.38497,0.09951,0.38004,0.20155,0.074051,0.048561,-0.002461,-0.05347,0.099521,0.099534,0.30355,0.074051,-0.078959,-0.18097,-0.30847,0.074062,0.22701,0.023023,-0.078984,-0.33399,-0.25749,0.15054,0.048555,0.023035,0.048555,-0.078984,0.048555,0.074062,-0.053446,0.35457,-0.027998,-0.002485,-0.027974,-0.13001,0.074038,-0.20648,-0.23197,0.53313,0.15056,-0.10448,0.22705,-0.28298,0.15054,0.048536,-0.002454,-0.002467,0.023059,-0.002448,-0.18101,-0.12999,-0.15548,0.20152,0.38005,0.15057,-0.053427,-0.10445,-0.30849,-0.18096,-0.18098,0.023023,0.25254,0.099503,0.17604,-0.15547,-0.12995,0.048561,0.09954,0.099515,0.30355,0.12505,-0.12999,-0.027974,-0.12995,-0.10445,-0.20648,-0.027925,-0.18097,-0.18097,-0.33399,0.30356,0.60957,-0.027998,0.023017,-0.10447,-0.18097,-0.002479,0.12504,-0.3595,-0.078935,0.023029,0.32903,0.25257,-0.053421,-0.053482,0.023029,0.048536,-0.027944,-0.20647,-0.28299,-0.12998,0.048512,0.099515,0.12505,0.099546,0.17609,-0.027969,-0.12998,-0.002467,0.023072,-0.078977,-0.002497,0.048536,0.099552,0.25254,0.12503,-0.027938,-0.28294,-0.02795,-0.35949,0.048518,0.27806,0.25256,0.15054,0.074013,-0.81851,0.048549,0.40559,0.048543,-0.15549,-0.1045,-0.002443,0.12504,0.38006,0.27805,0.074038,-0.51249,-0.589,0.20156,0.048536,-0.18096,-0.25748,0.15053,0.20156,0.22704,0.09954,-0.053476,-0.078996,-0.07899,-0.436,-0.20653,0.099521,0.45659,0.15056,-0.18097,0.023023,0.023047,-0.002448,-0.027969,-0.43601,-0.18098,0.20152,-0.35951,-0.538,-0.05347,0.35456,0.25257,0.27806,0.38005,0.22704,0.22706,0.15054,-0.74202,-0.69104,0.099528,-0.10446,0.45661,0.099559,-0.02795,-0.23201,-0.2065,-0.283,-0.25746,0.17606,0.25256,0.30358,0.17604,-0.15548,-0.002436,0.22707,-0.00251,-0.181,-0.027962,-0.13001,-0.15548,0.023072,-0.053482,0.023023,0.27811,-0.12997,-0.181,0.048525,0.20156,0.023029,-0.23199,-0.002454,0.023078,0.20155,0.023023,0.074038,-0.002472,0.048543,0.048506,-0.3085,-0.33401,-0.002491,0.17608,0.074075,-0.12998,0.023035,0.40557,0.048543,-0.33398,0.074044,-0.078996,0.27807,-0.002448,-0.12997,-0.1045,-0.1045,0.023047,0.09954,0.023047,-0.18098,-0.027969,-0.48701,-0.18097,0.6096,0.48209,0.12504,-0.23197,0.09954,0.12504,0.27804,-0.027993,-0.38498,-0.38501,-0.15546,-0.30849,-0.13,0.17606,0.30361,0.25252,0.074026,0.15056,-0.10449,0.09954,-0.078953,-0.15549,-0.38505,0.023047,0.17606,0.17603,0.30356,0.099577,-0.078928,-0.30849,-0.12998,-0.053476,0.12504,0.074026,0.20155,-0.078966,-0.10443,0.25255,-0.002485,-0.12997,0.048555,-0.02795,-0.28302,-0.027962,0.22707,0.25255,0.30355,-0.027987,0.17605,-0.12995,-0.30849,-0.10449,-0.12998,-0.12996,0.15054,0.12505,-0.15548,-0.078972,-0.23194,0.22707,0.30352,0.074026,-0.41051,-0.078984,0.22705,0.074002,-0.002491,0.48208,0.20159,-0.41047,-0.027956,-0.18097,-0.23196,-0.15549,0.048512,0.12504,0.048549,-0.027974,-0.002467,0.15058,-0.25746,-0.35948,0.125,0.35454,0.45659,0.43109,-0.20647,-0.74199,-0.078966,0.17605,0.22704,0.15052,-0.20648,-0.10446,0.17605,-0.0535,-0.10444,-0.20649,-0.027962,0.023054,-0.20646,-0.027938,-0.18098,0.17601,0.35453,0.50758,0.074044,-0.41047,-0.2575,-0.51249,-0.28298,0.25256,0.45656,0.43106,0.17602,0.023029,-0.053451,-0.23198,-0.18099,-0.20647,-0.12994,0.023054,-0.10452,0.023023,-0.002461,-0.15548,0.25257,0.48206,0.20155,-0.33399,-0.10448,-0.15545,-0.41044,-0.2575,0.22699,0.53303,0.22706,-0.053446,-0.23195,0.074051,0.17606,0.27805,-0.13,-0.35949,-0.33398,0.074062,0.48206,0.35453,-0.18099,-0.94601,-0.35946,0.35456,0.48206,0.40556,0.22705,-0.002497,-0.027974,0.074057,-0.10447,0.048561,-0.002461,-0.078959,-0.66553,-0.20651,0.15054,0.15056,-0.078966,0.12504,0.25257,0.32907,0.023059,0.048536,-0.078972,-0.53801,-0.002467,0.12504,0.12503,-0.02798,-0.41049,-0.078947,0.15054,0.48211,0.25256,0.074026,-0.15551,-0.07899,0.09954,0.17606,-0.12998,-0.94602,0.099552,0.25255,0.22708,0.023023,0.15055,0.20152,-0.002454,-0.053451,-0.20648,-0.12997,-0.078947,0.20156,-0.33399,-0.20652,0.15051,0.40555,0.17604,0.023041,0.099546,-0.18097,-0.10445,-0.10444,-0.181,-0.30852,0.048531,0.27806,0.07402,0.023029,0.074026,0.20156,0.099595,-0.33396,-0.58904,0.02301,0.12504,-0.002485,0.074033,-0.10448,-0.002436,0.15059,0.22705,0.074038,0.023047,-0.027969,-0.46154,0.20154,0.099521,0.27804,0.023065,-0.61447,-0.027925,0.074069,-0.10449,0.048531,0.17604,0.27802,0.43104,0.099534,-0.078953,-0.15547,-0.35949,-0.41046,-0.28298,-0.13001,0.32906,0.43109,-0.1045,0.048536,-0.078959,-0.23197,-0.053495,0.22705,0.099588,-0.002461,-0.078996,-0.078966,-0.079002,0.023035,-0.10447,-0.12998,-0.053464,-0.053482,0.048512,0.20155,0.20155,0.074038,0.15057,-0.002436,-0.35949,-0.86948,-0.10449,0.27804,0.15053,0.022974,0.074033,0.35458,0.12504,0.15054,0.12508,0.22707,-0.33399,-0.436,-0.35951,-0.10447,0.12504,0.25255,0.17603,-0.33399,-0.25748,0.2526,0.15056,0.17604,0.074051,0.074044,-0.078996,-0.053513,-0.02798,0.048531,-0.027956,-0.15545,-0.30847,0.20152,0.58409,0.023047,-0.38501,-0.10452,0.048518,0.30358,-0.38497,-0.078966,-0.002443,-0.10448,0.15052,0.048518,-0.23199,-0.12997,0.20155,0.35456,0.048561,-0.28299,-0.002472,0.27808,-0.12999,0.023023,-0.20649,-0.25751,0.09954,0.099559,-0.028005,-0.12994,-0.38495,0.048549,-0.079008,-0.053482,0.30354,0.30355,0.17605,-0.15549,-0.20646,-0.23195,-0.078977,-0.1045,0.023035,-0.078959,0.048506,0.12504,0.22706,0.023023,0.048555,-0.078941,-0.027962,0.023023,-0.181,0.38007,0.73708,0.32903,-0.97152,-0.56348,-0.38497,0.20156,0.27808,0.17602,0.15052,0.099528,-0.078984,-0.078977,0.12502,0.099546,-0.078953,-0.078984,-0.00243,0.12509,-0.385,-0.20651,-0.027998,0.35459,0.17604,0.099534,0.023035,-0.15543,-0.20647,0.048518,0.048549,-0.30848,0.25252,0.12502,-0.002479,0.17607,0.099546,-0.18097,-0.18095,-0.28294,0.099521,0.099521,0.20155,0.099528,0.048487,0.15055,-0.053427,-0.053446,-0.078972,-0.25747,-0.2575,-0.18097,-0.027987,0.12503,0.27805,0.17604,-0.15546,-0.002461,0.023059,0.17604,-0.10447,-0.18098,-0.002467,-0.027987,0.22707,0.17607,0.023047,0.048555,-0.12998,-0.053482,0.12505,0.12502,-0.1555,-0.002485,-0.078977,-0.23195,-0.078947,0.17606,-0.15545,0.074038,-0.38499,0.25254,0.30354,0.27803,0.15054,0.074075,-0.12998,-0.38495,-0.15545,0.17604,0.074013,-0.12999,0.25253,0.07402,0.20153,-0.30845,-0.02792,-0.027993,-0.02798,0.12505,0.074013,0.09954,0.12504,0.12504,-0.027962,-0.2065,-0.078941,-0.12996,-0.12997,-0.23196,0.22706,0.074026,0.20153,0.30355,0.07402,-0.15546,-0.20646,-0.027944,-0.12995,-0.15548,0.048549,0.30356,0.227,-0.028005,0.099588,-0.23197,-0.23198,-0.30845,0.15057,0.35453,0.074026,-0.25751,-0.61451,0.30357,0.50758,0.32907,0.074026,-0.053458,-0.15547,-0.078953,-0.02798,-0.002448,-0.053482,-0.20647,-0.25748,-0.15546,0.12506,0.074013,0.023041,0.074013,0.074033,0.023054,0.048506,0.048543,0.15058,0.15052,-0.078966,-0.18097,-0.23198,-0.002436,-0.28297,-0.053451,0.25256,0.048506,0.32903,0.38006,0.12506,-0.15548,-0.15546,-0.12994,-0.02798,0.023023,0.074026,0.048536,0.17604,-0.002436,-0.12993,-0.23196,-0.002467,0.30358,0.048518,0.048482,0.048518,-0.46151,-0.027944,0.04858,0.048536,0.22708,-0.027962,0.074008,0.023041,-0.027974,-0.002472,-0.078953,-0.053495,-0.027962,-0.232,-0.002443,-0.002418,0.15056,-0.027969,-0.10448,0.048525,0.12505,0.074026,0.048536,0.048531,-0.12999,-0.25746,-0.053476,-0.027969,0.023059,0.12503,0.12501,-0.12994,0.15054,0.15056,-0.078928,-0.3595,-0.053464,-0.0535,0.17604,0.20155,-0.2575,-0.30844,-0.3085,0.58408,0.30353,-0.027987,0.099546,0.048567,0.15057,0.074026,-0.181,-0.23199,0.048555,-0.027944,-0.078953,-0.053458,0.074051,-0.078972,-0.078984,-0.002485,0.22705,0.12504,0.074062,0.048561,-0.02795,-0.15547,0.12506,-0.078959,0.023023,0.22704,-0.027998,-0.078947,-0.13,0.17604,0.5076,-0.20648,-0.23195,0.048543,-0.38499,-0.5125,0.023035,0.60956,0.074013,0.15056,0.12506,-0.053446,-0.027962,-0.027956,-0.027987,0.20154,0.17603,0.07402,-0.23198,-0.283,-0.15545,-0.25748,-0.053458,-0.33399,0.20155,0.30355,0.074013,0.20153,0.074044,0.17604,0.023054,-0.053451,-0.283,-0.10445,0.074026,0.023035,-0.10449,0.074026,0.023047,-0.027974,0.048525,-0.027969,0.048585,0.099515,-0.078959,-0.232,0.09954,0.048549,0.38003,0.099564,-0.28296,-0.538,-0.15548,0.17604,0.40557,0.32905,0.074013,-0.15548,0.25255,0.099515,0.3291,-0.33398,-0.20648,-0.15548,-0.23201,-0.002454,-0.027974,0.17603,-0.002467,0.074057,-0.078947,-0.181,0.15056,-0.10447,-0.3595,0.048549,0.40555,0.48207,0.17606,-0.18097,-0.28298,-0.33401,-0.15546,-0.18097,0.12502,0.12506,-0.25749,0.32907,0.25257,0.09951,0.17607,-0.10447,-0.027969,-0.30849,-0.23197,0.25258,0.099528,0.023017,0.12506,0.048543,0.048525,-0.18095,0.12505,-0.12999,0.27807,-0.079008,-0.053476,-0.15551,0.15056,-0.18094,-0.58899,0.20158,0.32905,0.32903,0.30355,0.17604,0.023035,-0.28298,-0.15549,0.20155,-0.18096,-0.25749,-0.078959,-0.12999,-0.002467,0.20154,0.20156,0.099564,-0.18101,-0.41047,-0.15548,0.12502,-0.002472,0.074062,0.32905,0.27805,0.12506,0.023041,-0.002461,-0.23196,-0.35949,-0.30847,-0.078935,-0.002528,0.073977,0.32905,0.3036,0.12504,-0.3595,-0.43599,-0.18095,0.048573,0.40553,0.048536,0.048549,-0.02798,0.074062,-0.05347,-0.027993,-0.23198,-0.05347,0.15054,0.45661,-0.13,0.099546,-0.002467,0.17606,-0.18097,-0.3085,0.048543,0.15056,0.25253,-0.0535,-0.12998,-0.10447,0.17605,-0.078935,-0.436,-0.38499,0.074062,0.048531,0.40554,0.68612,0.074013,-0.23201,0.048555,-0.053482,0.07402,-0.05347,-0.41045,-0.4615,-0.12999,0.27805,0.5076,0.43106,-0.1555,-0.28303,-0.56351,0.074062,-0.027974,0.099564,0.048555,0.20156,-0.13001,-0.027987,0.099534,0.048549,-0.078972,0.023035,-0.20648,-0.027956,-0.002461,0.023035,-0.027956,-0.13,-0.027993,0.30356,0.20156,0.074013,-0.0535,0.32908,-0.25745,-0.20643,-0.6145,-0.07899,0.12504,-0.25749,-0.002485,0.22702,0.35456,-0.027944,-0.002461,0.25253,0.27803,-0.002485,-0.18099,-0.23201,-0.18098,-0.23194,-0.18095,-0.078966,0.048536,0.12504,0.15054,0.048531,0.048512,-0.002491,-0.13001,0.099546,0.12507,-0.00243,-0.18097,-0.002461,-0.15547,-0.18101,0.099521,0.074051,0.32907,0.58408,0.32903,-0.61449,-0.89499,-0.002448,-0.027998,0.22705,0.32904,0.12505,-0.35947,-0.25749,0.099552,0.30356,0.17603,0.22705,0.099552,0.048525,0.048531,-0.10447,-0.078953,-0.20648,-0.20647,-0.078923,-0.25749,0.20155,0.099552,0.17605,0.074002,0.20155,0.023078,-0.078972,-0.002479,0.074087,-0.28299,-0.1045,0.12505,0.20157,0.048512,-0.41048,-0.15552,0.02301,0.074069,-0.15548,0.55859,0.55858,0.25254,-0.15546,0.048543,-0.053458,-0.20649,-0.18098,-0.027931,-0.33398,-0.25751,0.15057,-0.053495,0.17606,0.099534,0.12502,0.15056,-0.13001,0.074044,-0.053415,-0.18098,0.099559,-0.078996,0.12501,0.15053,-0.02798,-0.15551,-0.002461,-0.10445,-0.10444,-0.23195,0.074057,0.15052,0.25256,0.17602,0.15054,-0.23198,-0.35945,-0.12997,0.38006,-0.20648,0.15056,-0.053476,-0.079014,0.048536,-0.25747,-0.002448,0.17607,0.17604,-0.002461,-0.002485,0.12505,-0.027969,-0.12999,0.023035,-0.05347,-0.07899,-0.12999,-0.027956,-0.002467,-0.12996,0.074075,0.074026,0.023035,-0.13,-0.23203,0.099559,0.074051,0.023054,-0.078928,-0.10446,0.02301,-0.027956,-0.053458,0.20152,0.048531,0.048549,-0.002485,0.17609,0.22705,-0.15546,-0.18098,-0.3085,-0.002467,0.15054,0.074051,-0.41049,0.20153,0.50758,0.43108,-0.43598,-0.4615,-0.12999,0.20154,0.099515,-0.002472,0.048531,-0.002472,-0.181,-0.12994,0.20156,0.12507,-0.20647,-0.053476,0.099521,-0.002467,0.25257,0.023035,-0.078972,-0.053433,0.023059,0.12506,0.023041,0.023005,-0.12999,-0.23201,-0.2065,0.27808,0.12506,0.048549,-0.027969,0.12507,-0.1045,-0.10447,0.20156,0.15052,0.048525,-0.15545,-0.20647,-0.10446,0.38005,0.27807,-0.25748,-0.078972,-0.078959,0.12504,0.023035,-0.23196,-0.25749,-0.002472,-0.23195,-0.10445,0.099552,0.27805,0.35455,0.27804,0.30355,0.048531,-0.027974,-0.12995,-0.078898,-0.20646,-0.23201,0.048531,0.15055,0.12505,-0.078972,-0.18101,-0.10445,0.074057,0.048525,0.25257,0.023035,0.048518,-0.002485,0.048549,-0.027962,-0.10449,-0.078959,0.099552,0.17604,-0.23201,-0.05347,0.048555,-0.078966,-0.07899,0.074044,0.074051,-0.12996,-0.2065,-0.28297,0.20158,0.45653,0.48203,0.20155,-0.46154,-0.18098,-0.28295,-0.28296,0.099552,-0.053439,0.12504,0.15051,0.22702,0.35457,0.25255,-0.15548,-0.20647,-0.15546,-0.25749,-0.15545,0.099577,-0.027962,-0.002461,0.023017,-0.078984,0.20155,0.30356,-0.053446,-0.30851,-0.15546,0.20157,0.048536,-0.078977,-0.002497,0.023054,0.15053,0.023017,-0.18097,0.023084,-0.02792,0.20156,-0.078996,-0.002503,-0.002521,-0.28301,-0.053451,0.20157,0.023047,0.023047,0.048592,-0.002479,0.023029,-0.078972,-0.05347,0.099515,-0.002461,0.048543,0.099546,0.15056,-0.07899,-0.30846,-0.23199,0.15054,0.099552,-0.002472,-0.002461,0.074051,0.2526,0.099564,-0.20648,-0.20652,-0.027974,0.099521,0.12502,0.048536,-0.027987,0.074057,-0.10442,0.048567,-0.10448,-0.053458,-0.078984,0.27803,0.27805,-0.0535,-0.12998,0.023065,-0.002454,-0.002423,-0.30846,-0.3595,0.048531,0.048536,0.20152,0.40556,0.22704,0.17603,-0.10445,-0.283,-0.334,0.023059,0.023029,0.30354,-0.027962,-0.027944,-0.027969,-0.078972,-0.002423,-0.078959,0.12509,-0.053464,0.12502,0.12504,-0.053495,-0.079002,0.074038,0.074033,-0.053488,-0.053451,-0.027969,0.15055,-0.12996,-0.18099,-0.10449,0.15054,0.38008,-0.18097,-0.002436,0.15057,-0.027974,-0.28297,-0.18096,0.22702,0.09951,0.048536,0.023035,0.099534,-0.002454,-0.027931,-0.10448,0.25257,0.074062,-0.15551,0.074013,0.25256,-0.002443,-0.12997,-0.33399,-0.15547,-0.078941,0.048536,-0.027969,-0.05347,0.17604,-0.002491,0.099528,0.48211,0.099559,-0.33401,-0.002443,-0.027956,-0.10452,-0.027974,-0.002461,0.22707,0.023035,0.048543,-0.18096,-0.15546,-0.10448,0.30358,0.023035,-0.002485,-0.079014,0.074002,0.023047,-0.25748,-0.25748,-0.002418,0.074069,0.22708,-0.18101,0.022998,0.25254,0.25258,0.023054,-0.23201,-0.10445,-0.078941,0.099559,0.35454,-0.053458,-0.51252,-0.28303,0.048525,0.45658,0.15056,-0.053458,-0.078941,-0.05347,0.099564,-0.15548,0.074002,0.048536,0.15054,0.15054,-0.002448,-0.027913,-0.4615,-0.18097,0.32912,0.048525,-0.25753,-0.15549,0.17601,0.023017,0.12504,0.048561,-0.30846,-0.027956,0.25257,0.20153,-0.078972,0.074044,0.023029,0.023029,-0.20647,-0.30849,-0.283,0.023017,0.099552,0.17604,0.048518,0.17604,0.15054,0.22707,-0.078984,0.074026,-0.56348,-0.38497,0.2781,0.12505,0.099497,0.25253,-0.002479,-0.23201,-0.053476,-0.18095,-0.078959,-0.027974,0.27808,0.38006,0.048536,-0.078953,-0.078966,-0.12996,-0.23197,-0.28298,-0.053476,0.048543,0.55862,0.074026,-0.25751,0.048543,-0.053495,-0.079002,-0.002467,-0.002448,0.023054,-0.078977,-0.078966,0.048543,0.023029,0.09954,0.15054,0.17604,0.023029,-0.15545,-0.181,-0.10447,0.12507,-0.2575,-0.053451,0.27806,0.20153,-0.10447,-0.436,0.048536,0.45659,0.27806,-0.12999,-0.1555,-0.027969,0.12505,-0.1555,-0.25746,0.15052,-0.18098,-0.25746,-0.078953,0.25257,0.15052,0.20154,0.048561,-0.002454,0.048525,0.048543,-0.10448,-0.12998,-0.078941,-0.053451,-0.078977,-0.0535,0.15054,0.074044,-0.027974,0.023017,0.099546,-0.12993,-0.002418,-0.05347,-0.002503,0.22705,0.048525,0.12506,-0.027969,-0.2575,-0.18096,0.17608,0.38006,0.25254,-0.15549,-0.283,-0.25747,-0.15549,0.12503,0.12504,-0.12995,-0.23196,-0.078966,0.40558,0.27811,-0.25749,-0.078996,0.022968,0.15054,0.15054,-0.10446,0.023096,-0.12995,-0.079014,-0.002467,-0.078966,-0.002472,-0.13,0.07402,-0.15549,0.20156,-0.20646,-0.20646,0.12505,0.12504,0.048555,-0.33399,0.12502,0.17604,0.17605,-0.15549,-0.18099,-0.078953,-0.12996,0.048543,0.099534,0.32905,-0.053451,-0.078972,-0.283,-0.20649,-0.12995,-0.078966,0.074038,-0.002467,0.20156,0.048525,0.15051,0.074033,0.099552,-0.027969,0.074075,-0.15543,-0.002448,0.12502,0.15056,-0.078977,-0.10452,-0.053476,-0.053458,-0.15547,-0.18097,-0.12995,0.4311,0.15052,-0.1555,0.099552,0.17605,0.20155,0.09957,-0.10447,0.048525,0.074081,-0.20647,-0.28297,0.12507,-0.027969,0.25256,-0.12999,0.074038,-0.18099,-0.25749,-0.12999,0.30356,0.25256,-0.0535,-0.078935,0.15054,0.35457,0.20155,-0.23199,-0.38497,-0.078959,-0.078984,-0.053446,-0.053476,0.17605,0.023029,0.048525,-0.002454,-0.078996,-0.15548,-0.078977,-0.027931,0.048561,-0.002503,-0.002443,0.25255,0.22702,-0.20648,-0.25748,-0.23199,-0.053451,0.074038,0.099552,-0.10446,0.022986,0.3291,0.023035,-0.053464,-0.28296,-0.30847,-0.002491,0.35456,0.17604,0.07402,-0.027993,0.048536,-0.078953,-0.15544,-0.053446,-0.18098,-0.027969,-0.15548,0.35459,0.32905,0.048518,0.02301,-0.078996,-0.23199,-0.15545,-0.078941,0.38008,0.25257,-0.002448,-0.232,-0.23201,0.023035,0.074057,-0.053446,-0.053482,-0.078984,-0.35949,0.20154,0.17603,0.40554,0.30355,0.15057,-0.078947,-0.18097,-0.18095,-0.10445,-0.15543,-0.002461,-0.33402,-0.002485,0.45652,0.074008,-0.10445,-0.027962,0.074038,0.09957,-0.053446,-0.027944,-0.027974,0.12504,-0.002472,0.17605,-0.053476,-0.15548,-0.078977,0.12506,0.074051,-0.1045,-0.3595,0.074069,0.15056,-0.002461,0.20156,0.048555,0.20155,-0.12998,-0.20646,-0.027987,0.023035,-0.002485,0.12503,0.07402,-0.027987,0.12506,-0.078977,0.074069,-0.25748,-0.05347,-0.027944,-0.027962,0.074038,-0.053476,0.22704,0.6096,-0.30849,-0.33396,-0.25746,-0.12998,-0.12998,-0.078984,0.074002,0.27806,0.17604,0.22705,0.099564,-0.18098,-0.1045,0.12509,-0.10448,-0.002467,-0.002461,-0.027974,-0.027974,-0.053433,0.048555,-0.002461,-0.078953,-0.002485,0.40557,0.099534,-0.28298,-0.12995,0.35454,0.45654,-0.18098,-0.28297,-0.20648,0.074075,-0.078959,-0.15548,-0.078984,-0.12997,0.43107,0.27805,-0.20645,-0.079008,0.074044,0.074062,0.023035,-0.053476,-0.1045,-0.053476,0.099564,0.074044,-0.027974,-0.12998,-0.12998,0.15056,0.12507,0.023029,-0.12999,-0.12999,0.048555,0.048567,-0.10445,0.25257,0.30355,0.20155,-0.05347,-0.053495,0.023017,-0.15549,-0.053458,-0.12997,-0.10448,-0.078959,-0.10446,0.048585,-0.078977,0.30355,0.48204,0.22706,-0.20647,-0.23198,-0.283,-0.23198,-0.12998,0.3036,-0.12996,-0.15548,0.20154,0.50755,0.17604,-0.28296,-0.15548,0.023041,-0.002461,0.17608,0.048555,0.25257,0.023041,-0.2575,-0.002497,0.023023,-0.078947,-0.078947,-0.15549,-0.027944,0.17605,0.023023,0.023023,-0.15548,0.023047,-0.053476,-0.078977,0.074044,-0.12997,-0.078947,0.074026,0.15054,-0.027974,0.17604,0.074033,0.023023,-0.078984,-0.053427,-0.20647,0.074075,0.048573,-0.48706,0.15051,0.048555,0.048518,-0.30851,-0.15548,0.38009,0.12505,0.099559,-0.25752,0.17603,-0.053451,-0.23196,-0.15544,0.023054,-0.053476,-0.18099,-0.027962,0.25254,0.20152,-0.15551,0.099552,0.22704,0.12503,-0.05347,-0.00243,-0.25748,-0.3595,-0.053446,0.048555,-0.02798,0.073989,0.27804,0.09957,-0.15546,-0.078959,-0.02795,-0.18093,0.074044,0.17601,0.12502,-0.027969,0.20153,-0.12998,-0.078947,-0.20647,-0.027969,-0.053464,0.15056,-0.20652,0.12505,0.099577,0.12505,-0.053482,-0.078935,-0.15548,0.023035,0.074069,-0.12999,-0.053488,0.17604,0.074051,0.023023,-0.1555,-0.053476,0.15056,0.099583,-0.15548,-0.002448,0.27806,0.25257,-0.002467,-0.23201,-0.12998,-0.30846,-0.02795,0.20153,-0.002472,-0.33396,0.22706,0.15052,-0.053513,0.023017,-0.12998,0.099546,-0.078984,-0.027944,0.074069,0.048555,-0.027993,0.15054,0.17604,-0.053482,-0.053446,-0.053439,-0.078966,-0.07899,-0.12998,-0.027987,0.02301,0.12504,0.12506,0.099546,0.074026,-0.181,-0.02795,-0.18096,-0.10447,0.22708,-0.053495,0.20155,0.099552,0.12505,0.15054,-0.078977,-0.43598,-0.43597,-0.027962,0.12502,0.074051,0.048543,0.12504,0.45656,0.27805,0.30356,-0.538,-0.43599,-0.28297,0.074069,0.048536,-0.05347,0.048536,0.27808,0.099521,0.12501,-0.002485,0.048536,0.048567,-0.002418,-0.027944,-0.283,-0.23198,0.099521,0.17601,0.09954,-0.33397,-0.078941,-0.027962,0.074057,-0.181,0.022998,0.38005,0.17604,-0.12998,-0.05347,0.023047,-0.18095,-0.20647,-0.181,-0.10446,0.17607,0.25255,-0.053506,-0.027969,0.099552,0.22705,0.17605,0.074038,0.15058,-0.20647,-0.28297,-0.10448,-0.12998,-0.002467,-0.18098,-0.23198,0.35458,0.35459,0.023017,-0.002497,-0.078972,0.12506,0.048549,0.023023,-0.002461,0.074057,-0.35949,-0.2065,0.17606,-0.12998,0.048531,0.3291,-0.002472,0.09954,-0.07899,-0.30851,-0.2575,0.15057,0.12504,0.25257,0.074062,-0.053446,0.22704,0.17601,-0.002467,-0.58898,-0.38499,0.12506,0.32909,-0.027969,-0.027974,-0.002479,0.35454,0.48206,0.099546,-0.43596,-0.30848,-0.078959,0.09954,-0.078966,0.074033,0.07402,0.17607,0.048518,0.15054,-0.15549,-0.078977,-0.30849,0.20158,-0.027962,0.023023,0.15054,0.048543,0.074033,0.023054,-0.053451,-0.078966,-0.18097,-0.027969,-0.079008,0.22704,0.25256,-0.053519,-0.07899,-0.078959,-0.38497,-0.283,-0.15549,0.22706,0.20156,0.048543,0.27805,0.12502,-0.078953,-0.41047
-0.18101,-0.078977,0.074044,0.25257,0.20158,-0.12996,-0.15548,-0.078953,0.074062,-0.10449,-0.15549,-0.13001,-0.002491,0.40559,0.30356,-0.002454,-0.078984,-0.181,-0.002472,-0.002454,-0.053464,-0.15548,0.17607,0.15056,-0.078966,0.12505,0.023047,-0.35953,-0.12998,-0.002467,-0.027993,0.048506,0.22705,0.17607,0.22706,0.074026,-0.15546,-0.12996,-0.18097,-0.002467,-0.027969,0.074044,-0.078977,-0.15548,0.15056,0.35459,0.074038,-0.23199,-0.027969,-0.25749,0.17604,0.48206,-0.078966,-0.33399,-0.33399,0.25256,0.32905,-0.2575,-0.20648,0.023054,0.023059,0.09957,0.20155,-0.053476,-0.078977,-0.10447,-0.002448,-0.002443,-0.25753,0.023054,0.20155,0.17604,-0.02798,0.15055,0.074044,0.048543,-0.10447,-0.18096,-0.027962,0.023047,-0.027969,-0.002467,0.17607,-0.027969,-0.078966,-0.18098,-0.1555,-0.23198,0.074044,0.099503,0.15054,0.30359,0.12504,-0.053482,-0.078947,0.074069,0.048567,-0.232,-0.23199,0.09954,0.20153,0.048512,-0.1555,0.074062,-0.027956,-0.12996,-0.12996,-0.078966,-0.078959,-0.12999,0.17601,0.22704,0.4056,0.53309,0.30357,-0.38499,-0.078966,-0.41049,-0.10447,-0.002497,-0.10451,-0.20649,-0.027962,0.048561,0.48211,0.12507,-0.02795,-0.385,-0.30851,-0.41051,0.30354,0.71156,0.22702,-0.15544,0.023078,-0.053464,-0.07899,-0.33399,-0.385,-0.053488,0.32904,0.20153,-0.15547,0.20158,0.32909,-0.002472,-0.078947,-0.20649,-0.81852,-0.58903,-0.35951,0.35456,0.83906,0.7881,0.12507,-0.25748,-0.487,-0.41051,-0.078966,0.023017,-0.23202,0.15052,0.20156,0.38007,0.20157,0.048598,-0.30849,-0.078977,0.15052,-0.30851,-0.2575,-0.12996,0.22705,0.68608,0.5076,-0.538,-0.89504,-0.43601,0.48204,0.22704,0.048549,-0.10444,-0.18098,-0.15546,0.3291,-0.20648,-0.487,-0.002436,0.68605,0.35454,-0.053476,0.12505,-0.56352,-0.20647,0.17606,0.78808,0.43106,-0.18096,-0.33398,-0.4615,-0.33399,-0.15548,-0.027987,0.074038,0.25259,0.17605,-0.10451,0.15056,-0.027969,-0.181,0.15055,0.58412,0.099534,-0.053458,-0.13001,-0.2065,-0.15548,-0.41049,0.099528,-0.10449,-0.078959,0.63512,0.58408,-0.51248,-0.18095,0.50757,-0.23198,-0.487,-0.38499,-0.07899,0.35454,0.25255,-0.33399,-0.053482,0.40559,0.20155,-0.078972,-0.48702,-0.15546,-0.002497,0.22702,0.27805,-0.002472,0.074075,-0.12995,-0.35953,-0.33399,-0.053446,0.2526,0.20157,-0.028005,0.09954,-0.10449,0.09954,0.3291,0.15054,-0.334,-0.20651,-0.13001,-0.05347,-0.027901,-0.35951,-0.028047,0.22697,0.53314,0.20159,-0.38493,-0.28296,-0.12997,-0.079008,0.074026,-0.027956,0.022998,0.22705,0.15052,-0.002491,0.25259,-0.3595,-0.48699,-0.12993,-0.76759,0.048506,1.2982,0.38006,-0.15545,-0.07891,-0.10445,-0.15548,-0.25746,-0.41054,-0.64009,0.32907,0.58407,0.25252,0.12505,-0.23196,-0.38499,0.35462,-0.74214,-0.48706,0.86466,0.76264,-0.10445,-0.20643,0.023096,-0.58906,-0.43606,-0.18099,0.09954,0.048561,0.32912,-0.053506,-0.10451,0.048482,-0.027998,0.023059,0.22712,0.25258,0.074038,-0.002461,-0.30851,0.074051,0.58406,0.25256,-0.436,-0.23197,-0.23197,-0.41049,-0.35946,-0.30852,0.22704,0.17604,-0.02798,0.30355,0.20153,0.12504,0.20159,0.15058,-0.25753,-0.18099,0.048549,-0.079039,0.12503,-0.18095,-0.027944,0.40562,0.40559,-0.25748,-0.18097,-0.43602,0.023047,0.58408,-0.4106,-0.43604,0.27811,0.35456,-0.078959,-0.18096,-0.12999,0.099564,-0.078947,-0.12998,0.32907,0.17604,-0.25754,-0.30851,0.22705,-0.12998,0.17609,-0.078984,-0.18098,0.25257,-0.05347,0.12507,0.048555,-0.28298,-0.38502,-0.28299,-0.053488,0.22701,0.048561,0.25255,-0.078977,0.30359,0.17607,-0.25748,-0.58899,0.074033,0.15054,0.12502,-0.56354,0.02301,0.32909,0.25256,0.17607,0.30356,-0.38498,-0.46149,0.074026,0.20151,-0.20648,0.27807,0.22705,-0.1555,-0.15549,-0.002479,0.074062,-0.25746,-0.20647,-0.18098,-0.053495,0.17604,0.48211,0.48209,0.20158,-0.15543,-0.25749,-0.53803,-0.56353,-0.283,0.38004,0.17603,0.12502,0.32908,-0.027974,-0.002479,0.074062,-0.41047,-0.12996,0.35456,0.32904,-0.20652,-0.10445,-0.053439,-0.18097,0.09954,0.15055,-0.38499,-0.053458,0.023023,-0.30852,0.25256,0.3291,-0.15551,-0.0535,-0.02795,0.048567,0.12505,0.17609,0.099588,-0.25752,-0.10451,-0.38499,-0.15549,0.99212,0.7116,-0.078953,-0.56348,-0.4615,-0.86956,-0.13,0.58411,0.60959,-0.23201,-0.12998,-0.027962,0.09954,-0.15546,0.048531,0.17605,-0.18099,0.023041,0.25255,-0.05347,0.099564,-0.053446,0.048543,-0.12997,-0.078966,-0.10447,0.023029,-0.38503,-0.25754,0.20156,0.38009,0.17612,-0.23196,-0.53801,0.15052,0.60957,0.32908,-0.18096,-0.5635,-0.33401,0.32904,0.76258,0.048555,-0.41046,-0.23382,-0.23382,-0.41051,0.099534,0.20153,0.12502,0.35457,0.15053,0.3035,-0.69101,-0.33398,0.22707,0.40559,0.099577,-0.053488,0.20153,-0.05347,-0.33399,-0.61449,-0.15546,0.30356,0.55856,-0.23198,0.023005,0.27804,0.04858,-0.12997,-0.10447,-0.15546,-0.053464,0.27808,0.099528,-0.078972,-0.33398,0.20152,0.20152,0.27808,-0.28299,-0.12999,-0.078941,-0.002461,-0.078977,-0.12994,-0.002461,0.17607,-0.35949,-0.053458,0.099521,0.63508,-0.053464,-0.027944,-0.18103,-0.2065,0.074062,-0.30853,-0.18101,0.43109,0.58407,0.22713,-0.43596,-0.10449,-0.33396,-0.436,-0.0535,0.78807,0.48206,0.099521,-0.12996,-0.48702,-0.28296,-0.002412,0.099577,0.27806,-0.078996,-0.10453,-0.027969,0.07402,-0.002467,0.099564,-0.20647,0.17604,0.099577,-0.18098,-0.23202,0.22706,-0.283,0.048561,0.048531,0.074062,0.0741,0.17604,-0.25751,0.048549,-0.053464,-0.12998,-0.15548,0.17604,0.48209,-0.10447,-0.33398,-0.078984,-0.1045,-0.053476,0.17604,0.30355,0.40557,0.099546,-0.10445,-0.12995,-0.25744,-0.48699,-0.23201,0.07402,0.27808,0.32904,-0.10452,0.17601,0.40557,0.35461,-0.56352,-0.61453,-0.02798,0.023059,0.048549,0.048536,0.17603,0.25254,0.22709,0.048549,-0.20647,-0.053458,-0.12998,-0.20649,0.17604,0.048512,0.099528,0.099559,0.023065,-0.2575,0.099564,-0.23196,-0.64007,0.40557,0.73709,0.53308,-0.12993,-0.38501,-0.43604,-0.027913,-0.20642,0.023096,-0.002479,0.15053,0.0485,0.32902,0.50757,0.099503,-0.28301,-0.23196,-0.25748,-0.027944,-0.02798,-0.002472,-0.002448,0.048555,-0.053476,0.023041,0.20154,0.048518,-0.33399,-0.10445,-0.002454,-0.10447,-0.15548,0.43107,0.35458,-0.18101,-0.38503,-0.078959,0.15057,0.048555,-0.12999,-0.12999,0.27806,0.20153,-0.078984,-0.053439,0.35456,0.38008,-0.53798,-0.23196,0.023041,0.074013,-0.18099,0.074033,0.15055,-0.002485,-0.20648,-0.12998,0.30356,-0.027944,-0.23202,-0.078996,0.074038,0.15057,0.074069,0.023041,-0.02795,0.04858,-0.053476,-0.079008,0.25256,0.048567,-0.10449,-0.23201,-0.13,0.30356,-0.15548,-0.12996,0.099552,-0.002467,0.12507,0.25256,0.27803,0.17604,0.023035,-0.15545,-0.3085,-0.30847,-0.25744,-0.02795,0.38006,0.074044,0.17607,-0.079008,-0.30856,-0.053488,0.27807,0.074075,0.023054,-0.05347,0.099588,-0.1045,-0.053495,0.22706,-0.053482,0.074038,0.09957,0.17604,-0.23196,-0.38499,-0.078996,-0.002467,-0.15548,-0.12998,0.30356,0.45653,0.43104,0.048561,-0.46145,-0.35947,-0.12999,-0.027969,0.074051,-0.002479,-0.027993,0.22706,0.17606,-0.23201,-0.027938,0.023005,0.048543,0.12508,-0.027969,-0.078959,-0.10446,-0.05347,0.09951,-0.20647,-0.33399,-0.053495,0.35458,-0.078977,0.2016,0.099515,0.227,0.048531,-0.18095,-0.28298,-0.12992,-0.18094,-0.053476,0.32905,0.074038,-0.12996,0.12504,0.32904,0.25252,-0.078977,-0.20647,-0.10445,-0.027944,-0.053451,-0.20652,-0.10452,0.023047,0.15058,0.12509,-0.002448,-0.20649,-0.053495,0.20156,0.22705,-0.10452,-0.053506,-0.027969,0.12506,-0.15547,-0.23198,-0.25749,-0.078959,0.17607,0.22706,0.074038,-0.18103,0.17606,-0.385,-0.053446,0.5841,0.53308,-0.33397,-0.4615,-0.13,-0.10449,0.048512,0.099534,0.3036,0.20159,-0.15548,0.023029,-0.053482,0.023047,0.048536,0.17604,0.099546,-0.053476,-0.053476,-0.23195,0.074081,0.27808,-0.15549,-0.10449,-0.12999,0.32907,0.12505,-0.23199,-0.25749,-0.385,-0.20647,-0.027962,0.17605,0.22704,0.12501,0.53308,0.12505,-0.3085,-0.30849,0.12505,0.074013,-0.15548,-0.20644,-0.334,-0.002485,0.30359,0.074044,0.074062,0.023029,-0.053464,-0.07899,-0.10446,-0.027944,-0.027974,0.02301,0.09951,0.17606,-0.10445,-0.079002,-0.15552,-0.027925,0.09957,-0.002454,0.20156,-0.02795,-0.053476,-0.35949,-0.13001,0.12504,0.023059,-0.10443,-0.053446,-0.18103,0.32907,0.27809,0.15053,-0.10448,0.074044,0.25254,0.20155,-0.20647,0.048536,-0.002472,-0.13,-0.23197,0.074062,-0.10446,0.023023,0.023059,0.023072,-0.053476,-0.078972,-0.027969,-0.28298,0.023054,0.73706,0.73706,-0.15548,-0.4615,-0.25746,-0.33399,-0.078947,-0.078953,0.17608,0.17605,0.099503,0.20155,0.023047,0.25256,-0.053495,-0.25748,0.023059,-0.053458,-0.30847,-0.12998,0.25254,0.30354,-0.027956,-0.002485,-0.18103,0.023059,-0.053451,0.1251,-0.12996,-0.078984,0.20156,0.17604,0.27805,-0.02798,-0.30854,-0.30851,0.074075,0.15061,-0.25746,-0.2065,0.27802,0.55854,-0.181,-0.15544,-0.283,-0.20649,-0.23199,0.074026,-0.002497,-0.35954,0.22704,0.20156,0.32912,0.20158,0.074051,-0.18095,-0.20644,-0.12997,-0.10449,-0.07899,-0.10451,-0.053495,0.074038,-0.002485,-0.002503,0.074013,-0.15546,-0.12993,0.17605,0.48208,0.30359,-0.35949,-0.28297,-0.12995,-0.23197,-0.13002,-0.002491,0.074057,0.099546,0.074013,-0.002454,0.048543,0.27804,0.76261,0.15055,-0.589,-0.61449,-0.30849,0.074051,0.20159,0.17607,0.09951,0.048512,0.20156,0.023047,-0.002479,-0.18097,0.3291,0.099534,-0.33403,-0.027938,0.048549,-0.15549,0.15055,-0.002461,-0.15545,-0.23198,-0.28303,0.38003,0.17603,0.023054,0.17604,0.25253,0.099552,0.023078,-0.33399,-0.538,-0.3085,0.17608,0.074044,0.12503,0.22702,0.20155,0.22706,0.25254,-0.10445,-0.58897,-0.41047,-0.079021,0.12502,0.048567,0.048531,0.30352,0.43104,0.099546,-0.33396,-0.51249,-0.05347,0.074062,-0.10447,-0.078996,0.074044,0.20156,0.09954,0.09954,-0.053476,-0.18095,0.074069,-0.002485,-0.30849,-0.05347,0.023005,0.09951,0.43106,0.25256,-0.10449,-0.28296,-0.35946,-0.12996,-0.18098,0.27807,0.53306,0.023023,-0.28298,-0.18099,0.048536,-0.053433,-0.002436,0.12505,-0.10448,-0.15548,0.20153,0.30353,0.48205,-0.12996,-0.33398,-0.002461,-0.10447,-0.46148,-0.10447,0.09951,-0.2065,-0.053464,0.12504,0.45656,0.20152,-0.181,0.12505,-0.15547,-0.10447,-0.002485,-0.07899,0.023059,0.048543,-0.10447,0.074044,-0.053458,-0.1555,0.099552,-0.002472,0.048561,-0.20646,-0.027962,0.09954,0.40557,0.074033,-0.18103,-0.10447,0.048561,-0.12996,-0.053464,-0.20647,-0.02795,0.22701,0.40556,0.048531,-0.181,-0.28297,0.20156,0.12504,-0.002443,-0.18097,0.20152,0.35455,-0.33401,-0.2575,0.074093,-0.053458,0.12504,0.023005,0.074057,-0.053464,-0.15549,0.048525,0.30358,-0.027944,-0.078941,-0.078947,-0.078947,-0.10447,-0.181,0.25255,0.45656,0.048494,-0.15551,-0.25747,-0.48698,-0.027962,0.48207,0.27806,0.099552,0.023041,-0.33401,-0.13001,-0.002461,-0.053427,-0.18097,-0.053476,0.074057,0.12504,0.12504,0.17603,0.048536,-0.1555,-0.10449,0.023059,-0.053446,-0.18098,0.048525,0.048536,0.074051,-0.18097,0.074013,0.30356,-0.12994,-0.46148,-0.33399,-0.02798,0.55856,0.35454,-0.33399,-0.18099,0.15058,0.27809,0.12504,-0.51249,-0.10447,-0.053476,0.35456,0.074062,-0.002479,-0.23199,0.074013,0.12502,0.048536,0.048573,0.074051,0.074075,0.17609,-0.053495,-0.078947,-0.18098,-0.079002,-0.15549,0.023035,0.27805,0.048531,0.023059,0.074038,-0.20649,-0.41049,0.099552,0.17606,0.32904,0.32904,-0.12998,-0.027956,-0.027956,-0.053446,0.048531,-0.027993,-0.15547,-0.078977,0.17603,-0.436,-0.41046,0.15057,0.15053,-0.02795,-0.283,0.12504,0.45656,0.022998,0.074013,-0.002461,-0.15545,-0.25745,-0.12998,0.20155,-0.027962,0.023084,-0.05347,-0.33399,-0.002436,0.0485,0.099521,0.25256,0.25254,0.023041,-0.078972,0.17607,-0.10447,-0.053476,0.023035,-0.002467,-0.002436,-0.20649,-0.35949,-0.027944,0.07402,0.48197,0.22702,0.048543,-0.10446,-0.053421,-0.20645,-0.41048,-0.15546,-0.12998,0.0485,0.40553,0.17606,-0.079008,-0.002491,-0.12997,-0.33398,-0.15549,-0.027956,0.15057,-0.053495,-0.078966,0.15055,0.099577,0.22705,-0.20651,-0.385,-0.027938,0.20159,0.25258,-0.002485,0.27803,0.17604,-0.10447,-0.027969,-0.027962,-0.23194,-0.18095,-0.33398,0.20153,0.43106,0.074013,-0.15551,-0.053482,-0.053458,0.048573,-0.18095,-0.10445,-0.10449,0.35455,0.048543,-0.33404,0.17604,0.32909,0.12509,0.12507,-0.18099,-0.35948,-0.28297,0.15057,-0.002467,0.022998,-0.10452,0.27804,0.22704,0.09957,-0.43598,-0.002448,0.15055,0.35455,0.048518,-0.20648,-0.12997,-0.20647,-0.13002,-0.002448,0.1251,-0.12991,0.12507,0.25255,-0.002491,0.048543,0.07402,0.25253,0.074002,-0.1045,-0.053464,-0.15547,-0.15548,0.074062,-0.43597,-0.027969,0.074044,0.20156,0.12504,-0.002479,0.15057,-0.078923,0.15058,0.35456,-0.053506,-0.053506,0.074044,-0.2065,-0.15548,0.023059,0.12505,0.023059,-0.10447,-0.078984,-0.05347,0.15054,0.099528,-0.181,0.12504,0.27807,0.20158,0.22705,-0.4615,-0.20648,-0.13,0.15057,-0.35951,-0.053513,0.5076,0.45658,-0.28298,-0.078928,-0.41049,-0.078972,-0.053464,0.099552,0.30355,0.2015,0.099546,0.12505,0.048555,-0.23199,-0.33399,-0.078966,0.074051,-0.23199,-0.18102,0.25253,0.38008,0.048561,-0.23197,-0.12998,0.023059,0.20155,-0.13,-0.078972,0.12504,-0.053495,-0.002516,-0.078984,0.074093,0.048585,-0.078977,-0.053482,-0.25748,-0.002472,0.27805,0.32905,0.15054,0.048561,0.12504,-0.23199,-0.41049,-0.02792,-0.078984,-0.002491,-0.027969,0.023017,0.074057,0.32904,0.023017,-0.385,-0.15548,0.17606,0.048536,0.023054,0.12505,-0.027993,-0.053464,-0.027956,0.023035,0.15054,0.12504,-0.28299,0.074026,-0.33404,-0.1045,0.17605,-0.20646,0.04858,-0.078966,0.12507,0.35454,0.35455,-0.15546,-0.38502,-0.64002,0.074038,0.15054,0.20156,0.023065,0.023041,0.048555,0.048536,-0.053495,-0.053446,0.07402,0.25255,0.099534,-0.18098,-0.15545,-0.12995,-0.002479,-0.25753,-0.053495,0.30358,0.3546,-0.053451,0.023059,0.048518,-0.12995,0.074038,0.074038,0.27803,-0.25748,0.048549,0.50755,0.22707,-0.56348,-0.20648,-0.25749,0.023059,-0.46149,-0.027969,0.12506,0.20154,0.25256,0.20152,0.023017,-0.02798,-0.053488,-0.02795,-0.078935,0.27808,-0.10448,0.074075,-0.10447,-0.2065,-0.20653,0.023023,-0.15546,0.048592,-0.027962,0.25252,0.12503,0.25256,0.099528,0.20156,0.12503,-0.078984,-0.33394,-0.41047,-0.20646,-0.078972,0.12507,0.25254,0.1505,0.15054,0.048555,0.30356,-0.053458,-0.078959,-0.30847,0.17604,0.15051,0.17606,0.12505,0.074044,-0.002443,-0.10449,-0.18097,-0.33399,-0.12998,-0.002454,-0.002461,0.20156,0.099534,-0.2065,0.048525,0.25257,0.35457,-0.027938,-0.15546,-0.23198,-0.181,0.12503,-0.002479,0.15055,0.048549,-0.027969,-0.10447,-0.053427,0.20156,-0.15549,-0.30849,-0.18097,0.12507,0.022998,0.38003,0.099528,0.074087,0.074057,-0.23202,-0.23201,-0.002448,0.074026,0.30353,0.17604,-0.12996,-0.027901,0.12508,-0.18097,-0.12996,-0.002467,-0.027993,0.048543,0.09954,-0.00251,-0.15552,0.023041,0.09954,0.048512,-0.00243,0.023072,-0.002461,-0.002443,0.074087,0.074002,0.35452,-0.053495,-0.10445,-0.28294,-0.41049,-0.078977,-0.385,-0.2575,0.17603,0.81361,0.09954,-0.20646,0.023023,0.40558,0.099559,-0.12999,-0.053476,0.023072,-0.027974,-0.232,-0.25744,-0.12998,-0.027993,0.023023,-0.053451,-0.002479,0.30356,0.63509,-0.079021,-0.35951,-0.18095,0.12507,-0.027931,0.074038,0.074051,-0.20647,-0.35951,0.20157,0.074013,-0.18098,0.20156,0.55856,0.27806,-0.25747,-0.30848,-0.30849,0.048536,-0.053464,0.25254,0.074038,-0.053476,-0.20647,-0.078941,-0.027969,0.17604,0.27805,-0.1045,-0.2575,-0.46151,0.22704,0.20155,0.048561,0.25257,-0.3085,-0.15545,-0.15548,0.048518,0.43105,0.35456,-0.078977,-0.48702,-0.61451,0.048561,0.09954,0.074038,0.30359,0.023029,-0.002485,-0.23197,-0.12999,0.15054,0.27806,0.15058,0.048561,-0.69107,-0.028011,0.22705,0.22707,-0.46147,0.074013,0.53311,0.17609,-0.28297,-0.33399,-0.12998,-0.15552,-0.15548,0.12505,0.17601,0.12503,0.27805,0.12508,-0.078953,-0.15548,-0.1299,0.023084,-0.25751,-0.1045,0.048536,0.22705,0.20154,0.76259,0.023065,-0.33398,-0.538,-0.12995,0.15051,0.40552,0.20155,0.099546,-0.18097,-0.23197,-0.43595,-0.28298,0.22707,-0.15548,0.023035,0.35453,-0.027987,-0.30848,0.25253,0.60958,0.074038,0.099559,0.048567,0.023047,-0.12998,-0.283,-0.20649,-0.15548,0.023047,-0.12995,-0.002454,-0.33399,-0.30848,0.023029,0.63507,0.32906,0.07402,-0.15546,-0.23201,-0.12998,-0.078947,0.12504,-0.002448,-0.20647,0.023017,0.09954,0.074038,-0.053488,0.32908,0.023035,-0.027987,0.09954,-0.30846,-0.5125,-0.078977,0.17606,-0.002479,0.17603,0.35458,0.22706,0.099534,-0.436,-0.53799,-0.027931,0.27805,-0.002503,0.22707,-0.18098,0.12505,0.40557,0.53307,0.25255,-0.48697,-0.38495,-0.38496,-0.33398,-0.436,0.25251,0.25254,0.40558,0.35456,-0.05347,-0.28296,0.17604,0.27804,0.27806,0.20158,-0.38503,-0.12999,-0.15547,-0.027962,-0.05347,0.1761,-0.12997,-0.078972,0.27804,0.099552,0.074057,-0.053451,-0.232,-0.23203,-0.078972,0.12504,0.15057,-0.053464,0.12507,0.25256,-0.15551,0.023023,0.38008,0.68611,-0.2065,-1.0736,-0.18094,0.048543,0.22707,0.074044,0.15053,-0.053482,-0.30849,-0.027969,0.22705,-0.078953,-0.15546,-0.15546,0.074033,0.2015,0.02298,0.099546,0.32911,0.099546,-0.15546,-0.33399,-0.12998,-0.20648,0.048561,0.12505,0.22705,0.32907,0.099546,-0.41051,-0.33401,-0.027956,0.15057,-0.053476,0.048525,-0.002467,0.27805,-0.002472,-0.15548,0.17604,0.048561,-0.078953,0.074038,0.023017,-0.053476,-0.027956,-0.078953,-0.027969,-0.12994,0.048531,0.35456,-0.10447,-0.30849,-0.43598,-0.18098,0.20152,0.32905,0.17604,-0.20649,-0.15548,-0.18094,0.074062,0.15053,0.074051,-0.002491,0.15054,0.023054,-0.15548,-0.35952,-0.23198,0.12509,-0.05347,0.17603,-0.2575,0.09954,0.20152,0.27806,0.023047,-0.25745,-0.436,0.15055,0.17604,0.38006,-0.027956,-0.20647,-0.15549,-0.1555,0.048518,-0.05347,-0.053446,-0.002436,0.023035,0.048549,-0.053495,0.30356,0.20154,-0.38502,-0.23201,-0.10449,0.20157,0.048604,-0.12994,0.38005,0.32904,-0.05347,-0.23197,-0.18098,-0.12999,-0.18099,-0.02795,0.074044,0.25254,0.023041,0.023059,-0.28302,-0.079021,-0.078953,0.15056,0.12504,-0.053476,-0.15547,-0.20649,0.20158,0.22707,0.12507,0.1506,0.12505,-0.002461,-0.00251,-0.1555,-0.33398,-0.41049,0.20152,0.329,-0.15554,0.023029,-0.027944,-0.10446,-0.078953,-0.10447,0.023072,0.023072,0.048561,-0.002467,0.074033,0.15052,-0.15547,-0.18098,0.55858,0.81362,0.048549,-0.76753,-0.38497,-0.487,-0.23201,0.20155,0.25255,0.40555,-0.05347,-0.28298,-0.15547,0.63511,-0.002472,-0.12998,-0.283,-0.053555,-0.028005,0.55858,-0.027974,-0.20646,-0.078898,-0.23192,-0.28298,-0.25746,-0.15548,0.099546,0.22706,0.20153,0.048494,-0.027969,-0.027962,-0.053495,0.074069,0.023035,0.023023,0.074044,0.023035,-0.12998,0.048543,0.12508,-0.20648,-0.10448,-0.078984,0.12509,0.17605,-0.43605,0.023035,0.40559,0.22704,0.048536,-0.10443,-0.25747,-0.33399,0.023017,0.22702,0.22706,0.17604,-0.053458,-0.28298,-0.18098,-0.10446,-0.12999,-0.027969,0.099546,0.22704,0.20151,0.023054,-0.18097,0.20155,-0.23199,-0.25748,0.12509,-0.002467,0.048525,0.15056,0.22705,-0.41049,-0.51251,0.22703,0.22705,0.30353,0.17603,0.15056,-0.20649,-0.51254,0.15056,-0.18095,-0.05347,-0.38499,0.27806,0.15056,-0.027969,-0.002472,0.15054,-0.002443,-0.027969,0.023029,0.27807,0.12504,-0.30851,-0.48699,-0.15547,-0.053451,0.022998,0.30356,0.40557,0.22704,0.48204,-0.181,-0.20646,-0.41047,-0.25747,-0.10443,0.023078,-0.13001,0.048518,0.12505,0.17603,0.40557,-0.027944,-0.12997,-0.15546,-0.053482,0.07402,0.048506,0.32904,0.17604,-0.20647,-0.25751,-0.12996,-0.15546,-0.027931,-0.078947,-0.13,-0.027974,0.15054,0.20153,0.12504,-0.027974,0.074038,-0.027974,-0.10446,0.074087,-0.2575,-0.053488,-0.12997,-0.00251,0.30358,0.074062,0.30354,0.17607,-0.23199,-0.25748,0.17604,-0.027987,-0.2575,0.17604,0.22704,-0.053451,0.09957,0.15055,-0.3085,-0.41052,0.048525,0.048555,0.17607,-0.002461,-0.28297,0.074062,0.35456,0.07402,-0.33401,0.023059,0.12505,0.099528,0.048518,0.17606,0.074013,-0.18101,-0.41047,0.099546,0.15054,0.023072,-0.20647,0.09954,-0.23201,0.099528,0.38007,0.27805,-0.10445,-0.23194,-0.23196,0.048531,0.15054,0.15054,-0.13001,0.074026,0.20156,0.048549,-0.053476,0.099583,-0.23198,-0.53804,0.12504,0.15057,0.09954,0.20155,0.15055,0.048549,-0.02798,-0.07899,-0.027944,-0.078959,-0.18101,-0.18101,0.099564,-0.1045,-0.15552,0.048512,-0.002443,0.22711,-0.027938,0.074051,0.17606,0.2526,-0.33399,-0.35956,-0.053537,0.27803,0.17606,-0.078972,-0.15547,0.023084,-0.20646,-0.027993,-0.18097,-0.20648,0.35456,0.32907,0.023023,0.25257,0.099534,-0.48703,-0.89501,-0.002436,0.50757,0.40557,0.45658,-0.10451,-0.3085,-0.334,-0.30851,0.12508,-0.10445,0.074062,0.099559,0.099515,0.30355,0.048543,-0.078984,-0.15548,-0.15546,-0.07899,-0.1045,0.023035,0.09954,-0.02798,0.27805,0.20158,-0.053488,0.09957,-0.10446,-0.078966,-0.20649,0.074038,0.15054,-0.12997,0.32907,0.15055,0.048549,-0.078953,-0.436,-0.28296,0.07402,0.22705,0.15052,0.22703,-0.15546,-0.18098,0.17604,-0.053513,-0.027944,0.099577,0.17606,0.099577,0.12505,-0.2575,-0.30849,0.15054,-0.05347,0.023054,0.099546,-0.027969,-0.30849,0.023041,0.20155,0.17606,0.099546,0.099534,-0.05347,-0.18097,-0.15548,0.074038,-0.10448,-0.181,0.074057,-0.053464,0.074013,0.12508,-0.078928,0.023059,-0.053488,0.17607,0.35456,-0.20652,-0.1045,-0.078996,0.099515,-0.20648,-0.25746,0.12508,0.20159,0.17604,0.048549,-0.23198,-0.181,-0.02798,0.023017,0.074038,0.074069,-0.002472,-0.15548,-0.053464,0.048536,0.023041,0.048536,0.099528,-0.002454,-0.12998,0.023047,0.25256,0.023041,-0.25748,-0.18098,-0.002454,-0.079002,-0.002485,0.25257,0.12509,-0.38502,-0.181,0.099521,0.48208,0.22708,-0.28297,-0.10446,-0.15548,-0.30847,-0.10445,-0.20648,0.43106,0.32908,-0.12998,0.048536,0.048543,0.074008,0.074013,0.099552,0.048543,-0.002448,-0.053495,0.099552,-0.12997,-0.4105,-0.15546,-0.027974,0.17603,0.20154,-0.10445,-0.002448,-0.15549,-0.078959,0.12505,-0.028011,-0.23199,0.30358,-0.10452,0.048518,0.099577,-0.10445,-0.10447,-0.02795,0.023035,0.048512,0.099521,-0.12999,-0.18098,0.048543,-0.078953,-0.078953,0.023084,0.048561,0.074062,0.07402,-0.053506,-0.48701,0.17601,0.66057,0.27806,0.099534,-0.10443,-0.18097,-0.181,-0.18098,0.023017,0.20153,0.023065,-0.35948,0.023054,0.12507,0.074038,-0.002461,0.15056,-0.053476,-0.12999,0.12503,0.22701,0.15054,-0.15548,-0.25751,-0.20646,0.12508,0.022956,-0.12998,-0.38497,0.099521,0.45658,0.20157,-0.12995,0.099559,-0.43596,-0.74201,0.25254,0.27805,0.40555,0.32905,0.099515,-0.028018,0.023029,0.074087,-0.23194,-0.436,-0.25746,-0.23199,-0.1045,0.27805,0.074013,0.02301,0.074038,0.023072,-0.23195,-0.23198,0.25256,0.20154,-0.28302,-0.078984,0.20155,0.60957,0.45656,-0.078941,0.074038,0.023047,-0.9205,-1.456,0.099528,0.40556,0.32904,0.43104,0.20155,-0.027956,0.12505,0.12507,-0.07899,-0.12999,-0.181,0.12505,-0.05347,-0.12996,-0.002467,0.099552,0.074075,-0.12998,-0.078972,-0.053488,-0.027974,0.25259,-0.002479,-0.10447,-0.078966,0.20154,0.22706,-0.078984,-0.23199,-0.15545,-0.38498,-0.002479,0.35454,0.66056,-0.28301,-0.33398,-0.12996,0.048555,0.023041,-0.053451,0.17606,-0.12998,-0.078977,0.35458,0.15056,-0.002497,0.15053,0.023041,-0.20647,-0.28298,-0.053458,-0.181,0.074033,0.20157,0.074062,-0.027969,-0.18098,-0.10445,0.074075,0.25254,0.17603,-0.385,-0.053488,-0.028005,0.20156,-0.027956,-0.078947,-0.027925,0.15051,-0.23198,-0.28297,0.32905,-0.12999,-0.027938,0.20153,0.023035,0.023035,-0.30849,-0.18098,-0.10449,0.023023,0.12503,0.20157,0.074026,0.15056,0.048573,-0.15546,-0.10445,-0.15547,-0.002448,0.17604,0.15053,-0.053525,0.074033,0.099564,-0.15547,-0.232,-0.10445,0.17607,0.20155,0.048555,-0.053488,-0.13002,-0.078941,-0.41047,-0.027962,0.3801,0.45655,0.20155,-0.002479,-0.15548,-0.078972,0.099552,-0.15546,-0.43602,0.023065,-0.078966,-0.18101,0.15056,0.32906,-0.053464,-0.23198,-0.002485,0.35458,0.15057,0.099559,0.023029,-0.02795,-0.181,-0.18095,-0.027993,0.074038,-0.15548,-0.002479,0.17607,0.048543,-0.28297,0.17606,-0.078972,0.023047,0.048561,-0.053495,0.20153,0.71158,0.099521,-0.28298,-0.35948,-0.23198,-0.053446,0.074075,-0.15548,-0.078972,-0.078984,0.074013,0.074013,-0.078966,0.12506,0.25257,0.22705,-0.23199,-0.10448,0.09954,-0.053458,-0.12999,-0.10447,0.17607,0.22706,-0.20648,-0.15546,0.17603,0.20155,0.30356,-0.15551,-0.078972,-0.078935,0.099546,-0.002467,-0.10444,0.074069,-0.181,-0.12998,0.20154,0.32904,0.38007,0.12505,-0.283,-0.20647,-0.334,-0.18096,-0.20648,-0.078996,0.023035,0.099546,0.099534,0.27805,0.15055,-0.33399,-0.30848,0.048543,0.32907,0.22707,0.12505,-0.078959,0.023072,-0.05347,-0.053451,-0.23196,-0.589,0.048512,0.20153,0.17603,0.35454,0.32906,0.15054,-0.12998,-0.35948,-0.12996,0.43107,0.22705,-0.538,-0.23198,0.30357,0.15053,-0.027944,0.074033,-0.10448,-0.33401,0.048567,0.023054,0.15056,0.30356,0.12504,0.074008,0.02301,0.099546,-0.15549,-0.078972,0.09957,0.099564,-0.078977,-0.10448,-0.23197,-0.20649,-0.18098,0.048543,0.048536,0.12504,0.048531,0.17605,0.20158,0.12504,-0.02798,-0.028018,-0.51254,-0.053488,0.38006,0.15057,-0.41044,-0.078935,-0.10449,-0.053458,0.12504,0.20153,-0.10449,0.023029,-0.13,0.048561,0.25259,0.22705,-0.053464,-0.05347,-0.002454,0.048531,-0.05347,-0.23199,-0.10452,-0.002472,0.22708,0.17605,0.022998,0.17607,-0.43598,-0.20646,0.27809,-0.002479,-0.078959,0.074044,0.20155,-0.002461,-0.38502,0.20152,0.27807,-0.20649,-0.12999,-0.002467,-0.12996,-0.28298,-0.078947,-0.027925,0.099528,0.022992,0.22702,0.32907,0.15054,-0.15551,-0.38499,-0.28293,0.12506,0.074081,0.09957,-0.1555,0.074013,-0.0535,0.074026,0.22705,0.048536,-0.23201,-0.10445,0.074057,-0.12996,-0.28302,-0.283,0.15054,0.30356,0.27805,0.07402,-0.078941,-0.23196,0.023029,0.048536,0.20157,0.27806,-0.20652,-0.13001,-0.053439,-0.23197,-0.15549,0.074038,0.023054,-0.23199,-0.23199,0.15052,0.35456,0.55859,0.074033,-0.232,-0.28297,-0.25748,-0.002467,0.27808,0.38008,-0.33401,-0.385,0.27806,0.074069,0.048543,-0.10447,-0.25745,-0.30848,0.15054,-0.053476,-0.25754,0.048476,0.20155,0.15057,0.048555,0.023072,-0.05347,-0.10449,-0.18095,-0.053427,0.099546,0.099479,0.073989,0.20156,0.023065,-0.2065,-0.10447,-0.12994,-0.48697,-0.51249,0.25253,0.27804,0.22705,-0.078953,0.40557,0.32907,-0.18098,-0.23198,-0.002467,-0.002497,0.27805,-0.053458,-0.283,0.023047,-0.078941,0.023035,-0.15548,-0.027956,-0.027987,-0.002503,0.20159,0.12504,-0.05347,-0.12993,0.048536,-0.0535,-0.027969,0.35456,0.38008,-0.23199,-0.23201,-0.053451,-0.078977,-0.33399,-0.078966,0.27805,-0.30848,-0.053482,0.15054,-0.18096,0.07402,-0.15548,0.17606,0.074033,-0.002443,-0.15546,0.43106,0.40557,0.048536,-0.12998,-0.053446,-0.232,-0.28302,0.099564,-0.002423,-0.28299,-0.027969,0.27807,0.099534,-0.053476,0.074038,0.22707,-0.078972,-0.078984,0.17606,-0.12998,-0.385,0.15054,0.048549,0.25257,-0.002454,-0.181,0.12505,0.20156,-0.25753,-0.13002,0.023059,-0.12996,0.074081,0.074075,0.25255,-0.10448,-0.02798,-0.0535,-0.053476,0.023084,-0.28296,-0.027974,0.22706,0.40555,0.22703,-0.15547,-0.18098,-0.23199,0.048531,-0.15548,-0.10448,-0.027956,-0.12996,0.048543,0.55859,0.20153,-0.078984,-0.15545,-0.15549,-0.12998,-0.20646,-0.002472,-0.18097,-0.25749,-0.13,0.074038,0.12502,0.35458,0.38007,0.15053,-0.23198,-0.35947,-0.25747,-0.28297,0.38006,0.32902,0.048543,-0.2065,-0.28298,-0.18096,-0.07899,0.15059,-0.28298,0.17606,0.17606,-0.25752,0.074013,0.35456,0.32905,0.048561,-0.20649,-0.12994
-0.1045,-0.002485,0.02301,0.074026,0.12504,0.25258,0.048543,-0.002467,-0.10448,-0.15546,-0.20646,0.023059,0.20155,-0.23201,0.35456,0.30358,-0.23196,-0.61451,-0.12998,0.45656,0.53303,0.25255,-1.1755,-0.283,0.32907,0.40557,-0.18098,-0.002454,0.048561,-0.027944,0.023059,-0.079033,0.048506,-0.002461,0.22707,0.023017,0.048561,0.12511,-0.10446,-0.078972,-0.18101,-0.053482,0.023035,0.074057,0.099546,-0.02798,0.048555,-0.053451,-0.027938,-0.10449,0.099534,-0.13001,0.099515,0.125,0.25257,0.27815,-0.33402,-0.56354,-0.25747,0.17607,0.20155,0.048512,-0.12996,-0.002461,0.048549,0.12504,-0.30848,-0.12996,-0.053488,0.17602,0.12502,0.17609,0.023035,0.15052,-0.10446,-0.12993,-0.25748,-0.25747,-0.25751,-0.002472,0.38006,0.099552,-0.25749,-0.20648,0.25254,0.32903,0.89008,0.3036,-0.1299,-0.35948,-0.46154,0.099588,-0.33402,-0.078984,0.27808,0.25259,-0.078959,-0.46149,-0.28298,0.20152,0.43103,-0.053488,0.023023,0.074057,0.12508,0.099528,-0.078959,-0.15543,-0.02792,-0.10446,-0.12998,0.099552,0.048494,-0.002521,-0.13001,0.15054,0.55859,-0.10444,-0.69099,-0.027956,0.074057,-0.18101,-0.30852,0.22704,0.02301,-0.12997,0.12508,0.3801,0.32905,-0.1555,-0.002454,-0.283,-0.283,-0.002461,0.55859,0.12503,0.15055,-0.12994,-0.25748,-0.23201,-0.23203,-0.027956,-0.002491,0.15054,0.3801,0.17607,0.023059,0.12507,-0.436,-0.35951,0.22706,0.074033,-0.28303,0.30356,0.3291,-0.18101,-0.23199,0.27814,0.40557,-0.2575,-0.92053,-0.027987,-0.15549,0.15052,0.25252,0.09954,0.25257,0.023029,0.12505,-0.027956,-0.23198,-0.41049,0.27805,0.20155,0.074038,-0.20646,-0.18098,0.35458,0.20159,-0.18096,0.048536,-0.181,-0.33406,0.22702,0.55859,0.20159,-0.232,-0.23199,-0.00243,-0.10445,-0.027956,-0.25749,-0.1045,0.17603,0.35458,0.12505,-0.15548,-0.48702,0.09954,0.55861,0.12505,-0.20647,0.099577,-0.12999,-0.10453,0.35456,-0.7165,-0.94605,0.15054,0.53309,0.50759,0.074026,0.17604,0.30355,-0.1555,-0.538,0.048555,-0.41056,-0.078977,0.17611,0.30356,0.20155,-0.33402,0.022998,0.15056,-0.053464,0.099564,-0.002448,-0.33401,-0.027969,-0.053506,-0.05347,0.15057,0.099564,0.099521,0.12504,0.17608,-0.15548,-0.30851,0.048561,0.023054,-0.053458,-0.10447,0.22706,-0.15548,0.17605,0.25256,-0.58901,-0.53805,0.27805,0.43104,0.53302,0.78811,-0.15549,-0.002461,-0.078923,-0.79302,-0.30848,0.023072,-0.97153,-0.35953,0.30353,0.73708,0.40558,0.12503,0.22704,0.048531,0.048518,-0.25744,-0.76748,0.09954,0.12503,-0.10447,-0.053495,-0.053506,0.27805,0.17607,-0.18098,0.50762,0.074069,-0.2575,-0.053451,-0.23202,-0.25754,0.30356,0.17608,-0.283,-0.078923,-0.33397,-0.12998,0.022998,0.43104,0.38006,-0.00251,0.023029,-0.053458,0.074044,-0.15547,-0.10442,-0.15545,-0.18097,0.12503,0.048512,-0.1045,0.12501,-0.053506,0.023078,-0.078935,-0.15547,0.023059,0.25257,-0.23203,0.15055,0.099534,0.074038,-0.12998,-0.15545,-0.30848,-0.18098,0.25258,0.074008,0.48206,0.43107,0.12502,-0.2065,-0.10444,-0.43596,-0.23196,-0.10445,-0.10445,-0.18103,0.22702,0.25253,0.32905,0.20155,-0.027962,0.099559,0.023047,-0.86957,0.15058,0.4056,-0.12999,0.048555,-0.20654,-0.027993,0.17607,0.2271,0.023084,-0.53803,0.074057,0.22708,-0.053476,-0.15554,-0.002491,-0.078972,-0.15548,-0.00243,0.15056,0.35455,-0.053476,0.15055,-0.10449,0.099552,-0.18098,-0.12999,0.048518,0.30361,0.1761,-0.33399,-0.053464,0.048561,0.48206,-0.027993,-0.2065,-0.3595,-0.02798,0.048506,0.20157,0.15057,-0.58899,-0.30853,0.12504,0.35456,0.48208,0.35459,-0.10447,0.023084,-0.28297,-0.38503,0.099534,0.20156,-0.28305,0.023017,-0.053451,0.15055,0.099534,0.048567,-0.078953,0.074062,0.074057,0.074062,-0.053482,-0.10449,-0.053488,-0.027974,-0.027969,0.074057,0.023065,-0.02795,-0.027987,-0.027993,-0.002467,-0.18105,0.07402,0.38009,0.023084,-0.2065,-0.12996,-0.20645,-0.18097,0.32906,0.20156,-0.48705,-0.027987,0.35456,-0.002485,-0.002461,0.12509,-0.15544,0.023023,0.048525,-0.33401,-0.18095,0.35458,0.099497,0.048531,-0.078935,0.15057,-0.23197,-0.027931,0.22706,-0.15551,0.15054,0.22704,0.09951,0.2271,0.1761,-0.48704,-0.18098,-0.12999,-0.181,-0.18098,0.12507,0.17601,0.45658,0.074062,0.099552,0.25257,-0.6145,-0.6145,0.023035,0.45657,0.25254,-0.38504,-0.10452,0.17606,0.48209,0.53311,-0.15545,-0.4615,-0.25748,-0.027962,-0.10452,0.02301,0.25258,0.22709,0.023059,-0.078947,-0.18099,-0.078977,-0.23203,-0.053495,0.25253,-0.002479,0.25257,0.25256,-0.027944,-0.15543,-0.12996,0.099559,-0.283,0.30359,-0.002503,-0.00251,-0.33399,-0.33399,0.45658,0.63511,0.35458,-0.20832,-0.56348,-0.33399,0.048543,-0.10448,0.12499,0.45658,0.25254,-0.053476,-0.30847,-0.12995,-0.053451,0.023035,-0.002485,0.15054,0.074044,0.1761,0.099528,-0.028005,-0.078935,-0.23197,0.17605,0.099577,-0.053488,-0.053525,0.17606,0.15057,-0.027969,-0.20646,-0.078959,0.15056,-0.002461,-0.25751,0.17605,0.12504,0.074013,-0.079002,-0.027969,-0.15545,-0.10443,-0.33399,0.38005,0.099552,0.048549,-0.053488,-0.53799,0.27807,0.15054,0.17607,0.2016,0.12506,0.023029,-0.46148,-0.002497,0.278,0.38006,-0.002467,-0.20652,-0.33401,-0.078941,0.09957,-0.15549,-0.20649,0.17606,0.20156,-0.002485,0.048506,-0.12998,0.023078,-0.078947,-0.33395,0.023041,0.38003,0.63506,0.074026,-0.13,-0.15548,-0.33399,-0.38499,-0.12996,-0.23197,0.17606,0.12502,0.22704,0.048531,0.023059,0.20155,0.12507,-0.10447,-0.28297,-0.15546,-0.053464,0.66061,0.099473,-0.10449,-0.053458,-0.20649,-0.027956,-0.027944,-0.25748,-0.10447,0.3291,-0.079021,0.22705,-0.002461,-0.02798,-0.00243,-0.002454,-0.078928,-0.12994,0.12504,0.22703,0.12499,0.074026,-0.078972,0.074044,-0.23196,-0.10445,0.15055,-0.20646,-0.05347,0.15054,-0.079002,-0.078984,-0.10448,-0.12997,-0.002461,0.30356,-0.002454,0.09954,0.15056,0.15059,-0.20652,-0.079033,-0.078972,-0.12996,-0.12997,-0.002448,-0.12997,-0.027944,-0.10449,0.048518,0.17603,0.073995,0.27806,-0.002448,0.099534,-0.053421,-0.23197,0.023078,0.074069,-0.10449,-0.10452,0.048555,-0.10451,0.023017,0.022998,0.27806,0.099546,-0.23197,-0.25745,0.074038,0.15057,-0.10447,0.023017,0.20154,0.22707,-0.027987,-0.2575,-0.18092,-0.027944,0.22703,0.22705,0.048543,0.17604,-0.20648,-0.2575,-0.35954,-0.10441,0.074044,-0.15546,0.53312,0.27802,0.099534,-0.41051,0.38004,0.27806,-0.10447,-0.002454,-0.23194,-0.28298,0.074057,0.15054,-0.002467,-0.18098,0.048536,-0.283,-0.35949,0.099552,0.20157,-0.002516,0.40561,-0.12995,0.22707,0.02298,-0.18105,-0.10447,0.15056,0.45659,-0.12991,-0.33398,-0.28298,-0.10447,-0.053488,-0.10451,-0.002491,0.074002,0.17606,0.099601,-0.10443,-0.30851,0.32908,-0.13001,0.22702,0.17607,0.30354,-0.232,-0.25746,-0.002454,-0.18097,0.12509,-0.078953,0.023041,-0.002485,-0.1045,-0.23203,0.074057,0.074038,-0.02798,0.09957,-0.10447,0.099521,0.048536,0.048573,-0.0535,-0.20652,0.12509,0.048543,-0.25749,-0.027944,0.15054,0.25254,-0.15549,-0.12998,0.023041,0.15054,0.048549,-0.25748,-0.69097,0.25256,0.20153,0.074051,0.02301,0.40552,0.048518,-0.053476,-0.053519,-0.18097,0.074075,0.3036,-0.28296,-0.30846,-0.15548,-0.10453,0.099515,0.20155,-0.053458,-0.053458,-0.18097,0.074057,-0.002454,0.20156,-0.20653,-0.02798,0.048531,0.048518,-0.028029,0.20155,-0.078947,-0.10445,0.048555,-0.002436,-0.20648,-0.13,-0.053495,-0.07899,0.074051,0.12505,-0.027956,-0.41047,-0.23197,0.27806,0.22701,-0.1045,0.15054,-0.002461,-0.15547,-0.18097,0.074044,-0.053464,-0.18099,0.07402,0.048518,0.09954,0.099552,0.12505,0.12504,-0.027993,-0.20648,-0.51247,-0.20647,0.40555,0.50759,0.22705,-0.12999,-0.283,-0.002472,-0.027969,-0.15551,-0.027969,-0.053409,-0.10447,0.048543,0.15055,0.09951,0.17601,0.22707,0.048549,-0.20647,-0.15548,-0.053476,0.048555,-0.10447,0.12505,0.048518,-0.18101,0.023023,0.15054,0.023072,-0.2065,0.20158,0.12505,-0.12994,0.048518,0.27807,-0.10452,-0.20655,-0.002448,-0.078947,0.12509,0.074062,-0.078966,-0.10444,0.12503,0.15052,-0.053488,-0.002479,-0.10447,-0.58899,-0.181,0.30355,0.12508,0.12507,-0.23204,0.30355,-0.10448,0.023023,0.023078,-0.12995,-0.43597,-0.2575,0.25256,0.22705,0.40554,0.27805,-0.027962,-0.078972,0.023035,-0.12998,-0.23197,-0.053458,0.023023,0.12505,0.048549,0.15052,0.30356,-0.002472,-0.12998,-0.078953,-0.002448,-0.48697,0.15058,-0.20651,-0.053537,-0.23202,0.40555,0.30355,0.099559,0.023078,-0.18094,-0.18092,0.023035,-0.10454,0.17604,0.099497,0.074038,-0.002479,-0.078947,-0.027956,-0.1555,0.023047,0.023054,-0.078966,0.074051,0.12504,-0.02798,-0.05347,-0.002461,-0.15548,0.07402,-0.283,-0.18097,0.12506,0.099546,0.048555,0.07402,0.35458,0.30356,-0.64003,-0.20648,-0.10447,0.17605,0.27806,0.074013,-0.053488,-0.43604,0.15056,0.074062,-0.15546,-0.30851,0.023047,0.15057,0.22707,0.25257,0.25254,-0.10452,-0.053482,-0.10447,-0.10446,-0.23196,0.023047,0.25257,-0.18101,-0.66552,0.048518,0.48209,0.76259,0.40555,0.074069,-0.487,-0.4615,-0.078996,0.074044,-0.30847,-0.10448,0.20156,0.22705,0.0485,-0.05347,0.023072,0.023072,0.35456,0.09954,-0.10449,0.099491,0.048518,-0.15548,-0.002436,-0.28297,-0.23196,-0.15543,-0.10448,0.73711,0.60957,-0.10449,-0.35954,-0.1045,-0.35949,-0.078935,-0.002443,0.074033,-0.23197,-0.027969,0.66057,0.27802,-0.33397,-0.078941,0.20156,0.023023,-0.078984,0.15056,-0.23194,-0.51252,0.099503,0.32898,0.073989,-0.027974,0.099564,0.12509,-0.027882,-0.53798,-0.002418,-0.002461,-0.13002,0.02298,0.27808,0.023035,-0.181,-0.002454,0.099552,-0.15551,0.048506,0.32905,0.073989,-0.61453,-0.18094,-0.12995,-0.12993,-0.38497,0.40557,0.53308,0.15054,-0.2575,-0.334,0.22701,0.17603,0.15054,-0.10448,-0.436,-0.30846,0.099559,0.023072,0.12501,0.15051,0.15054,0.17606,0.22706,-0.02795,-0.15548,-0.28298,-0.28298,0.023059,-0.002485,0.20159,-0.20646,-0.487,0.22704,0.60957,0.25253,0.12506,-0.38499,-0.41054,0.12505,0.35458,0.3546,-0.13,-0.002448,-0.69101,-0.20647,0.023035,-0.35952,0.20153,0.35458,0.22704,0.15049,-0.053495,0.074026,0.023041,-0.12995,-0.002412,-0.18097,0.22707,-0.28295,-0.2065,0.22704,0.35456,-0.053495,0.074026,-0.002443,-0.23197,-0.10447,0.17606,0.099552,0.074013,0.20152,-0.027987,-0.28302,-0.23194,-0.02792,-0.002436,0.15058,0.25257,-0.13004,-0.30849,-0.12999,0.15052,0.15055,-0.053451,-0.35951,0.074057,0.048561,0.048561,-0.078984,-0.028018,0.099491,-0.027969,-0.12997,0.25259,0.074069,0.17607,-0.027944,-0.078972,-0.283,-0.078984,0.048555,-0.079008,-0.0535,0.25257,0.15054,-0.15548,-0.86952,0.12505,0.8391,0.17604,-0.35953,-0.25751,0.074069,-0.002461,0.35463,0.023005,-0.23199,0.074069,0.074038,0.022986,-0.027993,-0.23198,-0.053433,0.074081,0.048561,0.074038,-0.053506,0.25256,-0.002472,-0.078972,0.048525,0.023005,0.048543,-0.12996,-0.23197,-0.30847,0.099546,0.38012,0.12504,-0.41051,-0.079014,0.22703,0.023041,-0.15549,-0.027962,-0.12995,0.25257,0.53309,-0.053488,0.09954,-0.12996,-0.23197,0.12506,-0.002436,-0.15552,-0.23193,-0.25747,-0.002552,-0.20651,-0.053464,0.17604,0.22707,0.50752,0.38008,0.023114,-0.12995,-0.51248,-0.078984,0.023023,-0.38506,0.048512,0.12505,-0.027969,-0.10448,-0.002454,-0.12997,-0.053451,0.12508,0.35459,-0.1045,-0.078996,0.20155,0.27806,-0.002503,-0.74202,-0.02795,0.17606,0.22708,-0.18097,-0.027974,-0.20647,-0.15551,0.15055,-0.053476,-0.15556,-0.027987,0.1506,0.22708,0.099564,-0.00243,-0.053476,-0.15549,-0.15545,-0.1555,0.22704,0.45656,-0.02795,-0.02795,-0.15551,-0.002436,0.048536,-0.078959,0.25255,-0.20648,-0.181,-0.12999,-0.027944,-0.078984,0.023072,0.32903,0.30356,-0.027993,-0.078966,-0.18097,0.17606,-0.07899,-0.078953,-0.69097,0.074008,0.40555,0.20153,0.20155,-0.15545,0.40553,0.30355,-0.25745,-0.41047,0.048573,-0.002491,0.048561,-0.002497,-0.38506,0.17604,0.32907,0.099583,-0.20649,-0.23196,-0.00243,-0.027944,-0.027998,0.32902,-0.10452,-0.13001,0.20157,0.12504,0.30363,-0.18095,-0.38499,0.048536,0.09954,-0.02795,0.048512,0.22707,-0.078984,-0.35948,0.048598,0.25252,0.35451,-0.56353,0.023035,0.074051,0.3801,0.15059,-0.15545,-0.12998,-0.002461,-0.10447,-0.078984,0.12504,0.099521,-0.20652,-0.30851,0.53315,0.048549,0.023035,-0.43601,-0.35952,0.27805,0.25256,0.12505,0.099546,0.023047,-0.23197,0.09954,0.074002,0.17603,-0.25744,-0.078953,-0.12999,-0.12997,-0.33397,-0.027993,0.099521,-0.07899,0.023035,0.048536,0.048536,0.099546,0.25256,0.099559,0.20157,-0.10449,-0.30848,-0.58901,0.20155,0.22705,-0.23197,0.023017,-0.002443,0.074038,0.35454,-0.027974,-0.053476,0.17607,0.048573,-0.28299,-0.053488,0.074062,-0.10447,-0.1045,0.30355,0.17608,-0.10446,-0.1555,0.12507,-0.078935,-0.35952,-0.20652,-0.002454,0.099546,0.023059,0.27802,0.30358,0.17605,-0.002443,-0.15545,0.09954,0.22702,-0.283,-0.20646,-0.18103,-0.053519,0.12504,0.22712,-0.002461,-0.10443,-0.027938,0.074026,-0.23199,0.099515,-0.078972,-0.002436,0.09954,0.20151,0.25256,0.45661,-0.15549,-0.20645,-0.58899,-0.181,0.074038,0.048561,0.15059,0.12502,0.25256,-0.13,-0.10445,0.099552,0.048543,-0.20648,-0.12999,0.17604,0.22704,-0.002472,-0.30851,-0.12995,0.023047,0.17607,-0.027962,0.15057,0.023047,-0.20651,-0.18098,0.20158,0.099528,-0.10449,-0.10445,0.09954,0.32902,-0.15548,-0.48699,0.17606,0.17604,-0.002485,-0.12998,-0.027925,0.048561,-0.027938,-0.28304,0.25255,0.20156,0.20153,-0.053488,0.074069,-0.41049,0.099552,-0.12997,0.023047,0.023035,-0.053488,-0.053458,0.15054,0.17603,0.30354,-0.10447,-0.027974,-0.13001,-0.053458,-0.002418,-0.10447,-0.18097,0.20158,-0.002485,0.12504,-0.10449,0.023059,-0.30852,-0.002497,0.32906,0.048531,-0.61452,0.048531,0.074008,0.30358,0.023065,0.09957,0.074081,0.048555,-0.002448,-0.23198,-0.027993,-0.002491,-0.078996,-0.12996,-0.002491,0.25257,-0.12998,-0.181,-0.078959,-0.1045,0.074033,0.074033,0.32909,0.25261,-0.027969,-0.078959,-0.10446,-0.10452,-0.13001,-0.15552,-0.079026,0.17608,0.3036,-0.02798,-0.20649,0.04858,-0.35946,-0.10449,-0.027956,0.27807,0.022998,0.12505,0.25257,0.12505,-0.027974,-0.23199,-0.41049,-0.38496,-0.181,0.22705,0.27803,0.48204,0.48211,-0.25746,-0.38502,-0.33399,-0.002467,0.07402,0.07402,0.074044,-0.25746,-0.027969,0.40556,-0.027956,0.048549,-0.23199,0.09957,0.048549,-0.23203,0.17604,0.25257,0.02301,-0.02798,-0.10447,-0.20649,-0.10446,-0.181,0.074062,0.099601,-0.10445,0.22705,0.20155,0.099521,-0.07899,-0.46151,0.20155,0.12507,-0.12999,-0.15547,-0.10448,0.22702,-0.12998,-0.15547,-0.078977,-0.28297,0.09954,0.22705,0.35456,-0.181,-0.334,0.22706,0.12505,0.22708,-0.15547,-0.20646,-0.002418,-0.002454,-0.053506,-0.002516,0.12505,-0.12998,-0.05347,0.15055,0.022998,-0.2065,-0.027956,0.099583,-0.10449,-0.12998,-0.46149,0.074038,0.40557,0.73709,-0.10446,-0.66553,-0.30847,-0.027962,0.20153,-0.002497,0.074026,0.15059,-0.18098,0.099559,0.22705,-0.002461,-0.027944,-0.28298,-0.12998,-0.078977,0.1505,0.22705,-0.002467,-0.12998,0.12509,-0.15547,-0.027938,0.20153,0.22704,-0.002491,-0.15549,-0.002448,0.074038,-0.20642,-0.28303,0.48206,0.3036,-0.81852,-0.53798,0.099503,-0.002461,0.048555,-0.053464,0.45652,0.68604,0.074044,0.023047,-0.10443,-0.027962,-0.20649,-0.18097,-0.15548,-0.12996,0.074044,-0.07899,0.20159,0.048555,-0.10447,0.20153,0.17605,-0.002467,0.22706,-0.10456,-0.28296,-0.18096,-0.15546,0.17609,0.45662,0.048549,-0.38502,-0.1045,-0.079008,0.40555,0.02301,-0.18097,-0.43597,-0.18097,-0.053451,0.074033,0.023023,0.27805,0.048518,0.15054,-0.002454,-0.027969,-0.02795,-0.20649,0.074038,-0.15548,-0.23201,-0.027962,-0.078966,-0.053488,0.074038,0.12507,-0.027956,-0.20648,-0.027974,0.15054,-0.15549,0.074051,0.30357,0.40555,0.099491,0.04861,-0.46148,-0.53803,-0.053427,-0.053451,0.40554,-0.10449,-0.41052,0.17605,0.25258,0.35456,-0.02795,-0.053446,-0.12997,0.074008,0.12505,-0.002479,0.023029,0.048525,-0.002491,0.048543,-0.232,-0.28294,-0.053476,0.12504,0.12504,-0.078972,-0.181,0.074044,0.22708,-0.002491,-0.20647,-0.15545,-0.10447,-0.078959,0.023047,0.27805,0.20154,0.12502,-0.053519,-0.053482,0.074093,-0.12999,-0.053464,0.38011,-0.078977,-0.15548,-0.10446,0.074033,0.048525,-0.027962,0.074057,-0.2575,-0.12994,-0.078947,-0.028011,0.074008,0.25256,0.20154,0.22702,0.15053,-0.02795,-0.10447,-0.18095,-0.33397,-0.181,0.048536,0.17604,0.074013,0.12504,-0.12998,-0.12998,0.12505,-0.30843,-0.41048,0.20153,0.20151,0.35456,0.27805,-0.2065,0.048543,0.12506,0.32905,-0.15544,-0.18094,-0.20649,-0.18098,-0.10448,0.023017,0.15053,0.12507,-0.002479,0.099546,-0.027974,-0.15551,0.09954,0.17607,0.048536,-0.13001,-0.10448,0.12503,0.1761,-0.10445,-0.436,0.048573,0.27803,0.71157,-0.10449,-0.69104,-0.18098,0.20156,0.023047,-0.002454,-0.20645,0.023072,-0.027998,0.30353,0.38007,0.099534,-0.25754,-0.18095,-0.078923,-0.12998,-0.13002,-0.30849,-0.053451,0.20156,0.074026,0.30356,0.20155,0.099559,-0.053464,-0.18101,-0.25749,-0.20647,-0.18098,-0.053446,0.023047,0.02301,0.20155,0.023054,0.25252,-0.053495,-0.28296,-0.35949,-0.38501,0.12502,0.22705,0.27804,0.09954,0.25257,-0.2065,0.20159,-0.18099,-0.078984,-0.078977,-0.05347,-0.181,-0.15549,0.15056,0.099534,0.17607,-0.2065,-0.18101,-0.002448,-0.41047,-0.078966,0.48205,0.55858,0.12504,-0.385,-0.25749,0.023078,-0.25748,-0.43604,-0.18098,0.35461,0.023023,0.099534,0.35458,0.048506,0.48206,0.27808,-0.002491,-0.58899,-0.25747,0.12505,0.35458,-0.38502,-0.18099,0.074038,0.048525,0.023078,-0.12995,-0.23197,0.17607,0.15052,0.17604,0.15054,0.048531,-0.027962,-0.15551,-0.10444,-0.25748,-0.15548,-0.002472,0.63506,0.15052,-0.078966,-0.181,-0.20647,-0.10444,-0.027956,-0.23198,-0.027969,-0.002491,0.15054,-0.053476,0.048531,0.40557,-0.02798,-0.63999,0.12507,0.15054,-0.02795,0.53307,0.30355,-0.078959,-0.56351,-0.15546,0.15057,-0.20649,-0.232,-0.18102,0.32907,0.12507,-0.4105,0.38008,0.20155,-0.028011,-0.18098,-0.053458,0.15056,-0.078972,-0.027974,0.048543,-0.12997,-0.43605,-0.05347,0.32907,0.074062,-0.25748,-0.334,0.25257,0.38008,-0.33402,-0.20652,-0.002454,0.17603,0.099521,0.22707,0.30356,0.35458,-0.25748,-0.793,-0.46153,0.25253,0.27806,0.09957,0.048536,0.02301,-0.283,-0.43596,0.048555,0.20158,0.20155,0.176,-0.10452,0.22705,0.22709,-0.053458,-0.15548,-0.10447,-0.25747,-0.41046,-0.23201,0.099552,0.15054,0.32904,0.43104,0.12503,-0.002467,-0.46149,-0.10447,0.048549,0.25256,0.15056,0.023017,0.17609,0.023005,-0.33399,-0.10445,0.023054,-0.181,-0.053439,-0.30851,0.099528,0.20155,0.27803,0.20155,0.023029,0.074044,-0.002436,0.074062,-0.23201,-0.30847,0.023029,0.17604,0.12506,0.048549,-0.002467,-0.12997,-0.20651,-0.25748,0.099564,0.15054,0.17603,0.22704,-0.027962,-0.078959,-0.10449,0.074062,-0.053451,-0.30853,0.048531,0.20154,0.3801,-0.69103,-0.053495,-0.027956,0.30355,0.22703,0.048555,-0.38499,0.074062,-0.10449,-0.3595,-0.002448,0.15053,0.20153,0.40559,0.023035,-0.20647,-0.18097,-0.027993,0.023035,0.09957,0.023041,0.12505,0.048549,-0.41054,-0.027993,0.22711,0.048561,-0.002448,-0.027956,0.022992,0.27804,0.074033,-0.0535,-0.30849,0.074062,0.12507,0.048549,-0.078972,-0.10445,-0.15548,-0.078966,-0.078996,0.27805,0.17606,-0.05347,0.17606,-0.053458,-0.63999,-0.66554,0.25256,0.83909,0.48202,-0.027998,-0.12996,-0.02795,-0.28295,-0.20647,-0.002448,0.023065,-0.078996,-0.002472,-0.12999,-0.002491,0.22708,0.25253,-0.053476,-0.002387,-0.487,-0.0535,-0.053446,-0.028018,0.25255,0.58409,0.30355,-0.43598,-0.23194,0.15057,0.048543,-0.10449,-0.078972,-0.053476,-0.02798,0.099552,0.32904,0.22706,-0.23196,-0.43602,0.023035,0.22707,0.40558,0.12502,-0.334,-0.15547,-0.20648,-0.20644,-0.053439,-0.20647,0.048543,0.25255,0.17602,0.38006,0.25253,0.12502,0.048536,-0.30847,-0.12996,-0.23199,-0.15546,-0.20647,-0.1045,0.12504,0.12505,0.048506,-0.002467,-0.078947,-0.12996,0.023059,-0.002461,-0.10448,-0.027969,0.25254,0.25254,-0.02798,-0.35948,-0.43601,0.048536,0.048543,0.12504,-0.35951,-0.1555,0.099515,0.25252,-0.002467,0.074062,-0.28296,-0.07891,-0.20648,0.048518,0.12507,0.1505,0.099521,-0.12999,0.099521,0.17605,0.27806,-0.10449,-0.18094,-0.56345,-0.181,0.099564,0.25254,0.073995,-0.002467,0.40558,0.22705,0.074013,-0.844,-0.33398,0.023029,0.048512,0.17603,0.3291,-0.02798,-0.13002,0.023041,-0.002412,-0.027925,0.023047,-0.079014,-0.10449,0.22707,0.125,-0.078966,-0.436,0.074033,0.12505,-0.12998,-0.027962,0.074044,0.099577,0.023023,0.048536,-0.053488,-0.15548,-0.078966,0.22704,0.15056,-0.15547,-0.28298,-0.15546,0.15053,0.048512,0.20158,0.27806,-0.23196,-0.078959,-0.23205,0.22706,0.53309,0.15054,-0.23197,-0.41054,0.099577,-0.078959,-0.18099,-0.28296,-0.15546,0.023023,0.023029,-0.002467,-0.028018,0.32905,-0.053495,-0.28298,0.074038,0.099521,-0.002472,0.048585,0.023065,-0.078972,-0.12998,-0.002485,0.023035,-0.027944,-0.12996,-0.02795,0.048549,0.048536,0.12501,-0.002485,-0.053482,-0.12997,-0.10449,0.048555,0.15056,-0.18097,0.15064,-0.027962,0.12499,0.22699,0.22705,-0.181,-0.10449,-0.053464,-0.30848,0.023072,-0.25746,-0.053464,0.074051,0.099583,0.15054,0.38,0.48206,-0.23196,-0.74201,-0.078959,-0.053506,0.32907,0.40559,0.20159,-0.1045,-0.15549,0.17607,-0.13,0.15058,0.22709,-0.23201,-0.48698,-0.10447,0.12509,0.048506,-0.078972,-0.10448,0.099515,-0.02798,-0.33401,0.12505,0.27808,0.40556,0.048549,-0.10449,-0.002485,-0.053446,-0.23196,-0.10446,-0.10447,-0.25749,-0.13001,0.20155,0.023054,-0.13,-0.05347,0.43107,0.30357,0.25254,-0.18099,-0.56354,-0.20647,0.023072,0.35454,0.48209,-0.232,-0.02795,-0.002467,-0.2065,-0.20646,-0.30847,0.20155,0.15054,-0.23201,-0.41053,0.30356,0.43106,0.20155,0.20159,0.17612,-0.10446,-0.35949,-0.078966,-0.20651,0.048494,0.20153,-0.10447,0.17606,0.023029,-0.53802,-0.79301,-0.053464,0.17603,0.63511,0.35457,0.20152,0.099559,-0.20648,-0.35949,-0.25748,-0.20647,0.099559,0.22704,0.099546,0.074008,0.074033,-0.027969,0.048543,0.048549,-0.12995,-0.15546,0.022998,-0.079021,-0.18095,-0.10449,0.20153,0.30356,-0.23201,-0.15549,0.48211,0.3036,-0.10445,-0.43601,-0.30849,-0.18098,0.048525,0.25252,0.15054,0.023029,-0.15546,-0.28298,-0.053464,0.07402,0.048525,0.02301,0.15054,0.17609,-0.12998,-0.18097,-0.10445,-0.053446,-0.10449,0.074033,0.20153,0.099528,0.074069,0.20155,0.25256,-0.053458,-0.46153,-0.12999,-0.181,-0.23198,0.12504,0.12502,-0.027969,0.17604,0.17605,-0.30846,-0.18099,-0.12999,0.20161,0.27808,0.32904,0.17604,-0.1555,-0.3595,-0.053476,-0.078996,-0.25746,-0.25745,0.27808,0.25256,-0.027993,-0.002497,-0.078959,0.023029,0.22704,0.50755,-0.002454,-0.30846,-0.15546,-0.12998,0.023072,0.048536,0.099521,0.099497,-0.002472,-0.027944,-0.28298,-0.28297,0.30353,0.023035,-0.41051,-0.15551,0.30355,0.45657,-0.027956,0.048549,0.17607,-0.12996,-0.079014,0.12502,-0.38498,-0.28295,0.30358,0.35451,-0.15548,-0.12992,-0.002479,0.074044,0.074038,-0.12999,0.023023,-0.002491,-0.15551,-0.078966,-0.15549,-0.2065,0.22708,0.25259,-0.15548,0.12505,0.17604,-0.13001,0.17605,-0.027974,-0.002479,-0.002436,-0.43597,-0.4615,0.048543,0.12501,0.09954,0.22705,0.38005,-0.10449,-0.41049,0.17606,0.22708,-0.18096,-0.12998,-0.078966,0.27808,0.35454,0.048469,-0.12998,-0.12996,-0.12998,0.023054,-0.12993,0.048543,-0.13001,-0.18097,-0.05347,0.30357,0.30357,-0.05347,-0.002485,-0.078959,-0.12996,-0.027974,0.023035,-0.002454,-0.027956,0.074013,0.09954,0.099559,0.15056,-0.20648,-0.15548,-0.002467,-0.35947,0.17606,0.15052,0.048531,-0.20647,0.27806,0.30355,-0.002418,-0.41049,-0.079002,0.17605,0.15057,-0.25753,-0.078977,-0.283,0.32908,0.22705,0.15057,-0.33398,-0.002467,-0.13,-0.15551,0.15054,0.15054,0.12507,0.27808,0.023041,-0.25748,-0.15546,-0.002461,-0.10445,-0.12999,0.09954,-0.079014,0.17603,0.023054,-0.002479,-0.10446,-0.12996,-0.18096,-0.12998,0.27805,0.27806,0.17603,-0.002472,-0.053458,-0.078977,-0.053446,-0.20645,-0.3595,0.17604,0.27806,-0.13002,-0.053482,-0.027969,0.048536,0.099521,-0.02795,-0.15546,0.074062,0.023035,-0.15546,-0.30849,0.074062,0.40558,0.048512,0.048555,-0.078935,-0.23199,-0.002491,0.17604,-0.18099,0.048536,0.099528,0.20152,-0.078959,-0.002436,-0.12997,-0.053451,-0.20648,-0.002485,0.12507,0.09954,-0.10449,-0.15546,-0.07899,0.22706,0.074057,-0.23199,0.023054,0.15056,0.12504,-0.23199,-0.30854,0.32904,0.32905,-0.002461,-0.25748,-0.41046,-0.23195,-0.25751,-0.027987,0.048494,-0.079033,0.22707,0.25256,0.27808,0.12507,-0.15547,-0.20648,0.099583,0.12505,-0.027987,-0.0535,-0.10447,-0.23202,0.048536,0.12507,-0.053427,-0.15547,-0.30851,-0.18098,0.048531,0.32904,0.55856,-0.20649,-0.41052,-0.078972,-0.053451,0.048561,-0.15548,0.074051,0.099521,0.048506,-0.002479,0.048549,0.023059,0.048573,-0.12998,-0.078972,-0.053476,0.023035,0.12503,-0.15552,0.12504,0.12509,-0.002461,-0.35948,-0.15548,-0.43601,0.27805,0.45657,0.27806,-0.12999,-0.12997,-0.078984,-0.12998,0.048561,-0.436,0.17608,0.25257,-0.13004,0.099528,0.099588,-0.027962,-0.027987,0.17604,-0.027944,-0.10444,-0.35949,0.30353,-0.10449,0.30357,0.099534,0.048531,0.15057,-0.10448,-0.15548,-0.23197,0.023035,-0.027974,-0.078996,0.099546,0.27809,0.22705,0.15054,-0.23199,-0.56349,-0.41049,0.17602,0.40559,-0.10446,-0.053476,0.022986,0.099528,0.27808,0.20159,-0.027944,-0.35951,-0.1555,0.20158,-0.46148,-0.3595,0.12499,0.09951,0.40557,0.32907,0.099521,-0.10445,-0.078923,-0.10447,-0.28301,-0.078984,0.35456,0.099546,0.023059,-0.078959,-0.30849,-0.10445,-0.053476,-0.05347,-0.28297,-0.23199,0.53302,0.38006,0.15057,0.048561,-0.079026,0.17606,-0.027938,-0.18096,-0.15548,0.074013,-0.078972,-0.2575,-0.38499,0.074038,0.17606,0.17606,0.25256,0.074051,-0.18098,-0.027993,-0.00251,0.25253,0.22707,0.099552,-0.35947,-0.18096,0.20156,0.17607,-0.30849,-0.33403,0.22705,0.30357,0.048555,-0.12998,-0.10444,-0.46149,0.048543,0.20156,-0.181,-0.0535,0.40557,0.32905,-0.38502,0.023047,0.099577,0.15057,-0.027956,0.074062,-0.15552,-0.30851,0.20158,-0.027974,-0.10449,0.20155,-0.02792,-0.63999,-0.232,0.074026,0.25256,0.22704,0.25255,0.32907,0.17607,-0.12998,-0.38498,-0.12998,-0.15552,0.17604,-0.078966,-0.053464,0.40556,0.48208,-0.23195,-0.38498,-0.23201,-0.181,0.07402,0.074069,-0.078947,-0.10445,-0.13,0.15052,0.43108,0.099564,0.048567,-0.181,0.15053,-0.10447,-0.002436,-0.078977,-0.18099,-0.078972,0.074044,-0.35949,0.15056,0.12505,0.22706,0.20153,0.099528,-0.05347,0.15055,-0.027962,0.023047,-0.12999,-0.25745,-0.25751,-0.28301,0.15059,0.099559,0.12509,-0.053488,0.22703,0.20156,-0.181,-0.002479,0.048567,0.099552,0.099528,0.12508,0.43107,-0.3595,-0.7675,0.023041,0.32904,0.15055,-0.10447,0.023041,0.099534,-0.05347,-0.18098,-0.002472,-0.05347,-0.18097,0.27805,0.12505,0.074062,0.074087,-0.10447,-0.053495,-0.0535,0.048543,-0.12996,0.023035,0.099528,-0.20649,0.048561,-0.078953,-0.10449,0.048531,0.27805,-0.10445,0.099552,-0.18101,-0.079002,0.023059,-0.053476,0.09954,0.12505,0.27806,-0.027944,-0.18097,-0.30849,-0.02798,0.22706,-0.10445,-0.46148,-0.12999,0.12503,0.35458,0.048531,0.023023,-0.18101,0.12504,0.048549,-0.05347,0.17608,-0.027938,-0.436,-0.30851,0.12503,0.27805,0.30358,-0.002472,-0.1045,0.074062,-0.078966,-0.2065,-0.053458,-0.027969,-0.15552,-0.25751,0.17603,0.35461,-0.027944,-0.18098,-0.15547,-0.15548,0.023035,0.074038,-0.053476,-0.05347,0.15054,0.20156,0.22707,0.023017,-0.078966,-0.20647,-0.61451,-0.43601,0.50754,0.22704,0.5331,0.12505,-0.05347,-0.15549,-0.078941,-0.053421,-0.12996,-0.053464,-0.027969,0.27808,0.17601,-0.00251,-0.283,-0.28298,0.023041,0.12507,0.023029,-0.053464,-0.002467,-0.078972,-0.02798,-0.027987,0.048573,0.074044,0.023047
-0.078996,-0.20649,0.22707,0.17604,0.023029,0.12504,0.27808,-0.23199,-0.10444,-0.18097,-0.1555,0.074062,0.12504,-0.053519,0.12505,0.27808,0.023054,-0.078972,-0.027969,-0.002461,-0.002479,0.09954,-0.25753,-0.053495,0.17607,-0.027956,0.023065,0.09957,-0.18097,-0.28302,0.27808,0.074038,0.17602,0.38007,-0.078977,-0.027962,-0.053433,-0.25748,-0.30849,-0.18098,0.38005,0.22706,-0.38503,0.099546,0.099552,0.048531,0.17607,-0.10446,-0.078972,-0.027962,-0.12999,-0.002472,0.074013,0.40557,0.22705,-0.078984,0.12508,-0.20644,-0.61449,-0.25748,-0.053519,0.15055,0.66063,0.22705,0.099528,-0.02798,-0.385,-0.20648,0.048543,-0.002461,-0.41053,-0.10449,0.32908,0.15057,-0.10447,0.074051,-0.28299,0.048531,0.38006,0.32904,0.58403,-0.027969,-0.48697,-0.46147,-0.38498,-0.5635,-0.35954,0.89011,0.45659,0.12504,0.15057,-0.20647,-0.43596,-0.20647,0.12503,0.15049,0.35453,0.15052,0.2781,-0.20644,-0.20646,-0.078947,-0.18101,-0.23198,0.25254,0.15054,0.30359,-0.07899,-0.41056,0.099613,-0.35945,-0.027962,-0.027962,-0.027969,0.12501,0.048536,-0.02798,0.15054,0.22706,-0.35949,0.12506,-0.053427,-0.25749,0.17603,-0.002472,0.45658,0.91559,0.32905,-0.28297,-1.201,-0.64,0.27806,-0.002521,-0.078972,0.43117,-0.181,0.22702,0.48206,-0.15548,-0.51252,0.09954,0.023023,-0.02792,-0.078959,0.048536,0.30355,0.048525,-0.027969,-0.10445,-0.81856,0.40557,0.27803,0.99211,-0.053451,-0.8185,-0.12995,-0.20652,-0.027974,0.27811,0.023005,-0.51257,0.099564,0.1251,-0.002467,-0.41054,0.15051,0.4821,0.55859,-0.15551,0.48208,-0.20643,-0.99706,-0.43602,-0.15549,0.55859,0.023059,-0.35952,-0.053446,0.27807,0.27805,0.30353,0.2526,-0.027962,-0.30852,-0.18103,0.074081,-0.15548,0.22708,0.048555,-0.12998,0.15057,-0.12999,-0.15549,-0.25746,-0.12999,0.27803,0.048543,0.38008,0.12502,-0.07899,-0.43601,-0.51249,-0.23199,0.91565,0.30353,0.023005,-0.48699,-0.12993,-0.41052,-0.15546,0.12505,0.023072,0.048567,0.099479,-0.20655,0.15057,-0.078977,0.55864,0.43111,-0.74203,-0.53804,0.55856,0.48209,-0.33399,-0.41048,-0.10447,0.43105,-0.10449,-0.33395,-0.33399,-0.02795,0.20155,-0.05347,0.15054,0.17606,-0.48705,0.099564,0.43108,0.22703,0.25253,0.02309,-0.81853,-0.25752,0.76258,0.048525,0.45658,-0.99703,0.074062,-0.61451,-0.46147,0.71164,-0.18098,-0.053531,-0.10452,0.35457,0.099534,0.35454,0.329,-0.38502,-0.15542,-0.53796,-0.10445,-0.002461,0.32907,-0.078996,-0.12999,0.25257,0.12505,0.32905,-0.002423,-0.23197,-0.48705,0.048512,0.15054,-0.33402,0.048536,0.30356,0.25254,-0.41052,0.099583,0.023047,0.32906,-0.33396,-0.23201,0.15052,-0.053439,-0.35948,0.074038,0.227,0.22701,-0.15549,0.5076,0.55861,0.38006,-0.7165,-1.3795,-0.76747,0.27806,0.30359,0.17601,-0.28306,0.3545,0.40551,0.22701,0.48209,0.32908,-0.002423,-0.436,-0.58901,-0.35946,0.074062,-0.053476,0.074044,-0.13,0.22705,0.074026,0.15049,-0.25751,-0.28298,0.35461,-0.027969,-0.078972,0.023078,-0.15546,-0.12999,0.30355,0.35458,0.20156,-0.12997,-0.053519,-0.487,0.30352,0.22706,0.20159,-0.18097,-0.25753,-0.41046,-0.18095,0.25254,0.17605,-0.053495,-0.027993,0.2781,-0.23196,-0.35953,0.38008,0.074038,0.074026,0.45656,-0.053464,-0.23196,-0.20649,-0.232,-0.10447,-0.002436,0.20153,0.20154,0.099528,-0.12995,0.074087,-0.18103,0.22702,-0.10447,-0.18098,0.15054,0.60958,-0.027956,-0.51249,-0.46149,-0.15545,-0.02795,-0.23205,-0.028047,0.50758,0.66064,-0.13,0.20156,-0.20647,-0.027938,-0.078935,-0.283,-0.25752,-0.20649,0.099552,-0.02798,0.074038,0.023023,-0.2575,-0.12995,0.45658,0.91562,0.60958,-0.69105,-0.61452,-0.3595,0.074038,-0.10448,0.45665,0.17606,0.17606,-0.053433,-0.28301,0.023029,0.048518,-0.18103,0.074013,0.023047,-0.20644,-0.12996,0.09951,0.58408,0.17607,-0.078947,-0.027969,-0.078953,-0.25749,-0.10447,0.023059,-0.30848,-0.078996,-0.053513,0.02301,0.48205,0.22704,-0.078966,0.17608,-0.18095,0.023059,-0.027956,-0.18096,-0.00243,-0.053451,-0.30852,-0.64008,0.7881,0.91562,0.17604,0.023047,-0.61449,-0.35946,0.38006,-0.10447,-0.20647,-0.28298,-0.232,0.12506,0.099564,0.27808,0.023029,-0.002443,-0.20649,-0.23201,0.38003,0.45653,0.30355,0.048555,-0.12994,-0.078928,-0.25746,-0.46152,-0.10447,0.074026,0.048506,0.22706,-0.027956,-0.027944,0.074044,0.02301,0.73709,0.68608,-0.053446,-0.30848,-0.69103,-0.33399,-0.43601,-0.20649,0.074044,0.17606,0.20158,-0.12998,-0.027969,0.22706,0.27806,0.2015,-0.027969,-0.078996,-0.002461,-0.078953,0.023029,-0.18097,-0.181,-0.15549,-0.053451,-0.10447,-0.10449,0.22708,0.45664,-0.23199,-0.12998,-0.029808,-0.07899,-0.15549,-0.002467,0.50756,0.83912,-0.078959,-0.66555,-0.46153,-0.10443,-0.1555,0.12502,0.074062,-0.18095,0.099559,0.22702,0.27806,-0.25753,-0.56351,0.15059,0.78812,-0.078947,-0.33401,-0.15546,-0.283,-0.10452,0.20154,0.53307,0.12504,-0.002448,-0.30846,0.099583,-0.18098,-0.002485,0.099546,0.20155,-0.10446,-0.05347,-0.12997,-0.027962,-0.10447,0.15059,-0.002461,-0.07899,-0.002503,0.048512,0.12505,-0.002454,-0.002479,0.20158,0.15057,0.12507,0.32909,-0.232,-0.84405,-0.18099,0.023054,0.048531,0.20155,0.20155,0.023047,0.022998,0.023035,-0.12994,0.023005,0.023035,-0.12995,-0.053451,-0.12998,0.15056,0.58411,0.12505,-0.232,-0.15548,-0.053464,-0.23199,-0.05347,-0.002467,-0.078972,-0.28298,-0.28298,-0.46152,0.53306,1.0941,0.53307,-0.51253,-0.43602,-0.43597,-0.46148,-0.25745,-0.20647,0.20151,0.20155,0.22705,0.17601,-0.053446,-0.283,0.38005,0.25254,-0.078953,-0.078953,0.023078,-0.23201,-0.46156,-0.25752,0.22708,0.40558,0.20157,-0.33397,0.074038,0.22707,0.25256,-0.10447,-0.35951,-0.1045,0.25254,-0.12996,-0.23196,-0.51252,-0.23197,0.4056,0.40556,-0.12999,0.25254,0.43104,0.20158,-0.027969,-0.30847,-0.15549,-0.10444,-0.12991,-0.15548,-0.078959,0.17604,0.35453,-0.053476,0.048536,-0.053519,0.15049,-0.002454,-0.35949,0.048567,0.023059,-0.30851,-0.23198,-0.053458,0.099559,0.40557,0.074026,0.30356,-0.10448,-0.283,-0.15548,0.40559,0.22705,0.048536,-0.20649,-0.20647,-0.23196,-0.078953,-0.002485,0.53306,0.15052,-0.35947,-0.38499,-0.13,0.176,0.30356,0.074057,-0.027944,-0.00243,0.17607,0.023041,-0.078953,-0.23204,-0.15549,0.2781,0.50757,0.17604,-0.10449,-0.23204,-0.078966,-0.078953,-0.30849,-0.41049,0.22708,0.9156,-0.078984,-0.43596,-0.20649,-0.15548,0.074013,0.07402,0.20156,-0.23197,-0.078984,0.27805,0.43106,-0.027962,-0.027944,-0.33398,-0.20647,0.048573,-0.002436,0.074008,-0.18102,0.20153,0.048543,0.048567,-0.002461,-0.079008,0.12507,-0.12993,-0.23199,0.0485,0.12503,0.17605,-0.053451,-0.30851,-0.10444,0.63512,-0.25746,-0.33399,-0.1045,0.83908,0.4565,-0.23197,-0.38499,-0.38501,-0.18093,-0.15545,-0.078972,0.12509,-0.30849,0.35453,0.53306,0.30353,0.074044,-0.05347,0.20157,-0.078947,-0.283,-0.30846,-0.10447,-0.10447,-0.078984,-0.15551,0.53305,0.60961,0.074081,-0.28296,-0.4615,-0.002479,0.35458,0.023023,-0.30851,0.22709,0.023005,-0.078972,-0.12999,0.074069,0.17607,0.074062,-0.078996,-0.0535,-0.053506,0.099552,-0.027956,-0.078959,-0.078923,0.15054,0.32907,-0.181,-0.43604,0.20153,-0.027974,0.12508,-0.10447,-0.20647,-0.053451,0.15053,0.66058,-0.078972,0.023023,-0.12998,-0.76754,-0.053451,0.17607,0.023029,-0.002454,-0.002467,0.09954,0.25254,0.15055,0.15054,-0.23198,-0.10445,-0.385,-0.20649,0.20156,0.60954,-0.35949,-0.15545,-0.078953,-0.15548,-0.18098,-0.0535,0.22705,0.27808,0.15054,-0.15546,-0.027925,-0.027962,-0.027987,-0.053458,-0.10449,0.1505,0.15051,-0.027956,-0.385,0.35459,0.32912,-0.10449,-0.078959,-0.18099,-0.4105,0.48207,-0.10449,-0.28298,-0.10444,0.30356,0.45656,-0.20649,-0.1555,-0.28297,-0.15549,-0.053482,0.099552,-0.027956,0.15054,0.35454,0.074062,-0.02795,-0.18098,-0.30853,-0.002472,0.048518,0.12502,0.048567,-0.25746,-0.027913,-0.053458,-0.15551,-0.18101,0.50755,0.17603,-0.053433,-0.12995,-0.002467,-0.10448,-0.43602,0.074062,0.12506,0.048512,0.074008,0.22705,-0.15548,0.30358,-0.20648,-0.002461,-0.027956,-0.12994,-0.25748,-0.027969,0.53307,0.50757,-0.12999,-0.30849,-0.25746,-0.12994,0.048555,0.074051,0.099534,-0.002516,0.074051,-0.078996,0.40556,0.48209,-0.15547,-0.15545,-0.25748,-0.28301,-0.15551,-0.10444,-0.15548,-0.002467,0.048543,0.27806,0.68608,0.023017,-0.53801,-0.33399,-0.15545,0.074069,0.17604,-0.20652,-0.028018,0.35453,0.35459,-0.51249,-0.10445,-0.25747,0.40561,-0.13,0.048536,-0.181,0.02301,0.048525,-0.053451,-0.20646,-0.02795,0.20156,0.58405,-0.41052,-0.23197,-0.07899,-0.12998,0.074044,0.023047,-0.027931,-0.002454,-0.10452,-0.078935,0.074087,0.099515,0.0485,0.074038,0.20156,0.15055,-0.18092,-0.35948,-0.002461,0.22708,-0.079008,-0.15552,0.074051,0.099515,-0.002467,-0.027938,-0.02798,-0.12996,-0.25747,0.17604,0.099546,0.40554,0.17604,-0.25751,-0.43598,-0.002454,0.074051,-0.30846,-0.027969,0.4821,0.38006,0.048531,-0.15549,-0.027969,-0.181,-0.12999,-0.078953,-0.15546,0.22705,0.023059,-0.25746,0.12502,0.023047,0.074013,-0.30847,0.15054,0.048536,0.6861,0.099528,-0.10447,0.023047,-0.18098,-0.385,-0.35951,-0.002448,0.20156,0.023005,-0.12998,0.15056,0.023035,0.023035,-0.10449,-0.027974,-0.002479,-0.027938,0.12506,0.17606,0.32908,-0.002423,0.04858,-0.61459,-0.20652,0.20158,0.048536,-0.078941,-0.12994,0.48206,0.30356,-0.053458,-0.43602,-0.12999,-0.12999,-0.05347,0.023059,-0.002454,0.09954,-0.002479,-0.002436,0.099534,0.023054,-0.23201,0.25255,0.20155,-0.053506,0.32908,0.20158,-0.027944,-0.35951,-0.23196,-0.10447,-0.20656,0.09954,0.15059,0.074087,0.023047,0.22705,-0.10445,-0.12996,0.15054,0.22705,-0.078959,-0.05347,-0.15549,0.15054,0.38004,0.60958,-0.30845,-0.35945,-0.4615,-0.027956,0.023041,0.17601,-0.028005,0.12504,-0.002461,0.023047,0.25257,-0.18098,-0.51249,0.15059,-0.053451,0.048487,0.278,0.63509,0.40559,-0.15545,-0.078959,-0.23197,-0.33398,-0.3595,-0.23201,-0.002485,0.20156,0.099521,0.023041,0.074038,0.048525,0.048536,-0.1555,-0.12995,0.074062,0.25254,0.32907,0.22706,-0.12998,-0.25748,-0.25748,-0.20646,-0.078917,-0.2065,-0.10452,0.71158,0.50757,-0.079008,-0.18098,0.074075,-0.12995,-0.33396,-0.18096,0.25255,0.099515,-0.07899,0.22705,-0.15548,0.099552,0.048512,-0.25748,-0.20645,-0.18094,0.20157,0.12504,-0.027974,0.099546,0.074038,0.30355,0.17604,-0.12999,-0.30851,-0.25743,0.27812,-0.13001,-0.07899,0.023035,-0.027993,0.30356,-0.027962,-0.078959,0.048536,-0.002436,-0.12999,-0.15546,-0.053458,0.30355,0.048525,-0.002479,-0.002461,-0.25746,0.20159,-0.078984,-0.10448,-0.10451,-0.30852,0.25254,0.53307,0.6606,-0.10445,-0.33399,-0.334,-0.43601,-0.078966,0.04858,-0.10443,-0.027962,0.48205,0.43104,-0.07899,-0.12997,-0.078947,-0.33398,-0.18095,0.27805,0.25257,0.023023,-0.18104,0.099552,0.27807,-0.002423,-0.8695,-0.20648,-0.078977,0.40558,0.66053,0.17597,0.099479,0.27803,-0.20649,-0.20646,-0.43596,-0.58896,-0.10438,-0.002448,0.17606,-0.053495,0.22705,-0.027962,0.27808,0.30355,0.25254,-0.12998,0.023059,-0.002454,-0.027993,0.048543,-0.027974,-0.078953,-0.027987,-0.18098,-0.10447,-0.027944,0.12507,-0.027969,-0.053495,0.12503,0.15056,0.023029,0.074038,0.15054,0.20155,-0.28298,-0.10445,-0.15545,-0.078996,-0.10452,0.023065,0.35459,0.15055,-0.12994,-0.28298,0.022992,0.43107,-0.15548,-0.05347,0.15056,0.12504,-0.3595,-0.002454,-0.078959,-0.10445,-0.28298,0.17607,0.55858,0.25254,-0.18101,0.12504,-0.18098,-0.027956,-0.18096,-0.18095,-0.078959,0.20153,-0.027993,0.048506,0.35458,-0.002418,-0.20647,-0.10449,0.38007,0.20156,-0.23201,-0.2065,0.023035,0.074051,-0.053464,0.12504,0.22708,-0.12999,-0.41052,-0.027944,0.048561,0.099546,0.15054,0.048555,-0.10447,0.17605,0.38006,0.25256,-0.15549,-0.15545,-0.20645,-0.35954,0.023047,-0.027974,-0.181,-0.002485,0.17608,0.48205,-0.25749,-0.41048,-0.35947,0.17604,0.099503,0.32902,-0.002479,-0.25746,-0.05347,-0.053427,0.074069,-0.027969,-0.33401,-0.283,0.17607,0.83914,0.32906,-0.20653,-0.23198,-0.28296,-0.18094,-0.002461,-0.1045,-0.053476,0.17604,-0.07899,0.02301,0.074038,0.17604,-0.002461,0.023084,-0.1044,-0.078959,0.074044,0.02301,0.02301,0.15054,0.074057,-0.027987,0.048543,0.099564,-0.18098,-0.15548,0.12507,-0.027998,-0.2065,-0.002479,0.12508,-0.25746,-0.2575,-0.053482,0.60959,0.074044,0.30357,-0.078977,0.073989,-0.2575,0.023047,-0.002472,0.12504,-0.23197,-0.20645,-0.15549,0.17608,-0.12995,-0.078984,-0.10449,0.40557,0.60958,0.32902,0.048536,-0.43599,-0.48697,-0.33398,-0.027993,0.09954,0.32909,0.099546,-0.13001,0.099552,0.074062,-0.002443,-0.10446,-0.181,-0.002479,0.22704,0.02301,-0.12999,0.15054,-0.002479,0.023047,-0.15544,-0.28298,-0.15546,-0.027956,0.099559,0.20155,0.30359,0.2015,-0.20653,-0.20647,0.048567,0.25257,0.074044,-0.20652,0.09954,0.09957,-0.02798,-0.078941,-0.15548,-0.283,0.074087,-0.10447,-0.10451,0.099521,-0.053464,0.17601,0.53306,-0.078966,-0.002461,-0.027944,-0.20641,-0.30851,0.45659,-0.38499,0.12503,0.22705,0.30354,-0.18098,-0.53803,-0.15548,0.20159,-0.078959,-0.181,0.048531,0.22705,0.30358,0.048536,-0.30851,-0.23199,-0.12998,-0.15546,0.22709,0.32912,0.074026,0.099479,0.022998,0.023041,0.09957,-0.053446,-0.078917,-0.20647,-0.23198,-0.35947,-0.10452,0.55854,0.58407,-0.28303,-0.1555,-0.25749,-0.053446,0.27808,0.099559,0.22712,-0.28299,-0.15546,-0.28297,-0.15549,-0.002503,0.27805,-0.002448,0.27811,0.09954,0.17602,0.17606,-0.10449,-0.23197,-0.181,0.09951,-0.10449,-0.10446,-0.12995,0.074081,0.048555,-0.23201,-0.02798,0.4056,0.023035,-0.18101,-0.10449,0.099577,0.20159,-0.25745,-0.41052,-0.078977,0.27805,0.30351,0.43103,-0.10447,-0.20647,-0.12995,-0.48699,-0.10445,0.43108,0.048536,0.30355,0.15055,-0.079014,-0.20649,-0.078923,-0.12998,0.048555,0.074062,-0.12999,0.15052,0.22705,0.45659,0.099546,-0.15545,-0.35948,-0.283,0.07402,-0.23201,-0.027974,0.27806,-0.002454,0.074044,0.27806,0.3801,-0.30849,-0.20649,-0.35946,0.048555,0.35459,0.17605,-0.43604,-0.38503,0.099546,0.27806,0.38008,0.048536,-0.002467,-0.078928,-0.07899,-0.15549,-0.13,0.099559,0.17605,0.22702,0.12504,-0.053464,-0.33396,-0.23199,-0.23199,-0.30851,0.25258,0.023017,-0.027974,0.30359,0.20155,0.15057,-0.078977,0.048525,0.074044,-0.20654,-0.2065,-0.02792,-0.027969,-0.002436,0.099552,0.27803,0.099559,-0.28296,-0.35952,-0.28298,0.12505,0.17604,0.48206,0.074038,0.09951,0.17607,-0.18098,-0.28297,-0.12994,-0.33402,-0.15552,0.22708,0.09954,0.15052,0.12505,-0.027944,-0.28301,0.023072,0.02301,-0.0535,0.074051,-0.078947,-0.23203,0.023059,0.17607,0.099521,-0.078947,-0.10446,-0.027956,0.17604,-0.10449,-0.002497,0.048536,0.023047,-0.41047,-0.15548,0.048567,-0.23201,0.023023,0.099521,0.22701,0.38008,0.32908,0.12502,0.023041,-0.38496,-0.35944,-0.30847,0.25256,0.12503,-0.02798,0.048512,0.17604,0.048555,-0.12999,-0.10449,-0.027944,-0.12998,0.12504,0.048549,-0.027993,-0.1045,-0.027944,0.023059,0.17607,-0.33394,-0.1555,0.048525,0.6861,0.17603,-0.15549,-0.18098,-0.027969,-0.002454,-0.10448,-0.002412,-0.25745,0.074062,0.27805,0.02301,-0.002491,-0.1045,-0.181,0.20155,0.099515,0.099546,0.023065,0.023096,0.25263,-0.10447,-0.15547,-0.027956,0.048536,-0.10448,-0.13003,0.40555,0.074051,-0.33397,-0.53802,0.17602,0.35453,0.71157,-0.002461,-0.28297,-0.30846,-0.20649,-0.078972,-0.18098,0.25254,0.20155,-0.15548,-0.15546,-0.10449,0.12506,0.22707,0.25254,-0.1045,-0.10444,-0.078959,0.048543,0.048525,0.074044,0.074051,-0.028018,-0.35953,0.023035,-0.027938,0.099595,0.25259,-0.053519,-0.18097,-0.2065,0.12507,-0.027969,0.30355,0.35458,0.099577,-0.35948,-0.15548,-0.35951,-0.002467,0.30355,0.48206,0.023047,-0.027974,-0.25751,-0.078947,-0.078966,0.023054,-0.053476,0.023035,0.023035,0.023035,0.17607,-0.027962,0.09954,0.074038,-0.10447,-0.12999,0.17606,0.023035,-0.002491,-0.02798,0.22705,0.12504,-0.078972,-0.56348,-0.18094,-0.053446,-0.002472,-0.05347,0.35453,0.25254,-0.05347,-0.12998,0.048549,0.074038,-0.12994,0.17606,0.074013,-0.027969,0.048512,-0.053476,-0.12996,-0.10445,-0.20648,-0.053482,0.074044,0.35458,0.20155,0.023047,-0.053488,0.074033,0.048543,-0.078972,-0.15548,-0.18094,-0.002461,-0.002479,-0.002448,-0.002479,0.20152,0.023029,-0.027956,-0.027969,-0.027969,0.12509,0.22704,0.32908,0.023065,-0.30851,-0.25751,0.048573,-0.027974,0.09954,-0.30847,-0.48701,-0.33398,0.35456,0.55854,0.27804,-0.15549,-0.027993,0.099559,-0.12995,-0.15546,-0.18095,-0.12993,0.048549,0.023017,0.023035,0.09951,0.07402,-0.078972,-0.10447,0.099534,0.12505,-0.053458,-0.20649,0.048536,-0.10447,-0.002479,0.25257,0.17604,0.32907,-0.33396,-0.33396,-0.078984,0.074008,-0.23202,0.12505,-0.20649,0.099559,0.55862,0.023059,-0.002448,0.048536,-0.078984,-0.30847,-0.48703,-0.07899,0.12504,0.32906,0.32905,0.099528,-0.10445,-0.30846,-0.334,0.38005,0.32905,-0.002467,-0.38503,0.17606,-0.027969,-0.02795,-0.078977,-0.28301,0.099559,0.074033,-0.002412,0.022992,-0.079008,0.32907,0.15053,0.25257,-0.027931,-0.30844,-0.46147,-0.12998,0.023023,0.12499,0.099503,0.43106,0.17603,-0.078947,-0.027931,-0.46148,-0.30849,0.048549,-0.05347,0.048506,0.30353,0.43106,0.2781,-0.12995,-0.23199,-0.4615,0.023047,0.30358,0.20154,-0.33401,0.048531,0.20155,-0.18101,-0.02795,-0.10447,-0.12999,0.09954,0.074075,-0.002448,0.20155,0.27805,-0.002485,-0.002467,-0.027956,0.023059,-0.5125,-0.4615,0.023047,0.25252,0.32904,0.40558,-0.13001,0.48205,0.17607,-0.25747,-0.589,-0.38497,-0.10446,0.023035,0.074026,0.125,0.45656,0.22703,0.25257,-0.15545,-0.10443,0.074057,-0.12998,-0.20646,-0.25751,0.30353,0.32902,-0.18101,-0.078977,-0.078966,0.023059,-0.002436,0.099552,-0.12998,0.15056,0.12508,-0.20649,-0.15553,0.17603,0.17608,-0.35946,-0.12996,0.17606,-0.078966,-0.23202,0.074026,0.48208,0.58403,-0.23199,-0.41049,-0.15546,0.099577,0.099564,-0.078953,-0.20649,0.15055,-0.20652,-0.053519,0.30359,0.20156,0.099564,0.17609,-0.23195,-0.078996,0.022986,-0.027969,-0.15548,-0.07899,-0.002467,-0.002412,-0.12996,0.20158,0.12504,-0.053476,-0.053482,-0.15553,-0.07899,-0.10447,0.22705,0.048555,0.099595,0.023041,0.17609,-0.053476,-0.33404,-0.28296,0.099528,0.63506,0.50757,-0.23196,-0.30848,-0.30844,-0.078984,-0.20652,0.023029,0.20154,0.15053,-0.02798,0.023029,0.22708,0.09957,-0.18098,0.023065,-0.15548,-0.079008,0.023023,-0.20649,-0.1555,0.048561,0.22709,-0.33403,-0.35951,-0.078977,0.15056,0.45659,0.38005,-0.028011,-0.10447,-0.078935,-0.20647,-0.385,-0.10445,0.023035,0.12502,0.25257,-0.053495,0.048518,0.35458,-0.10447,-0.28297,-0.30848,0.20157,0.099491,-0.25753,0.25258,0.30355,0.12511,-0.002436,-0.2065,-0.35951,-0.20649,0.12508,0.25257,-0.053513,0.023029,0.20155,0.02301,-0.002479,-0.12997,-0.10447,0.25256,0.048555,-0.25751,0.048567,-0.18096,-0.15552,0.17606,-0.027956,-0.027969,-0.027944,0.17604,-0.25748,0.20158,0.35453,-0.028011,-0.283,-0.283,-0.23195,0.17608,0.15054,-0.23198,-0.28299,0.15054,0.023041,-0.002454,-0.002485,0.02301,0.35458,0.15056,0.023047,-0.12997,-0.20652,0.15059,-0.078941,-0.027969,0.15056,-0.12998,0.074044,0.048536,0.22704,0.22705,-0.12996,-0.05347,-0.1555,-0.12995,0.12507,0.074033,-0.10446,-0.10445,-0.05347,0.048549,0.074057,-0.25747,-0.18099,0.15053,0.43107,0.25249,0.12503,-0.053427,-0.30847,0.023072,-0.20644,0.048555,0.048543,-0.078959,0.12501,0.15052,0.099546,0.12503,-0.002461,-0.28298,0.074057,0.25256,-0.053476,-0.10448,0.023023,0.17606,-0.12996,-0.28297,0.17607,-0.002472,-0.028018,-0.053488,0.2016,-0.002467,-0.002472,-0.18101,-0.23201,-0.027962,0.2271,0.02309,0.12505,-0.078996,-0.15546,-0.027993,0.12503,0.20156,-0.10448,0.20153,-0.283,0.048549,-0.10447,-0.10446,-0.078953,0.12503,0.074013,-0.027974,-0.07899,-0.46151,0.099577,0.30358,-0.002479,-0.053464,-0.18099,-0.078996,-0.10448,0.048525,-0.28303,-0.10447,-0.15546,-0.002467,-0.15548,0.22704,0.20156,0.099559,0.048561,-0.23199,-0.053482,0.40557,0.023041,-0.078959,-0.18097,-0.43604,-0.0535,-0.078959,-0.38498,0.074051,0.15054,0.023023,-0.002485,-0.15549,-0.12994,0.60962,0.58407,-0.053458,-0.41051,-0.20652,0.27807,0.25257,-0.5125,-0.30846,-0.10447,0.27804,-0.02798,-0.3085,-0.027969,0.38006,0.48207,-0.053488,-0.078959,-0.35946,0.074051,-0.027956,-0.10447,0.17606,0.35454,0.20152,0.15054,-0.10449,-0.69101,-0.18097,-0.12996,0.023059,-0.002485,0.45661,-0.20652,-0.13005,0.32907,0.17607,-0.12998,-0.33398,0.22706,0.099552,-0.078984,-0.10449,0.20157,-0.38499,-0.18098,0.074069,0.58409,-0.078972,-0.35951,-0.2575,0.07402,0.023059,-0.053488,0.12504,0.30353,0.27805,-0.15546,-0.46148,-0.23197,-0.027993,0.27805,0.20156,-0.12997,-0.078947,-0.027956,-0.1045,-0.027956,-0.12994,0.023041,-0.002479,0.099503,0.17603,-0.20647,0.12508,0.22706,-0.20655,-0.18098,0.048604,-0.10444,-0.002448,-0.18101,-0.2065,0.15059,0.53308,0.20155,-0.15548,-0.05347,-0.027974,-0.002485,-0.053458,-0.20647,-0.23198,0.17604,0.25255,0.20154,-0.2065,-0.10444,-0.20648,-0.18101,0.17605,0.55859,-0.053458,-0.078953,-0.078972,-0.027944,-0.20647,-0.002485,0.17607,-0.33399,-0.053495,0.22704,0.25255,0.30352,-0.25754,-0.02795,-0.078935,-0.23194,0.023114,-0.12996,0.048525,-0.078953,0.023035,0.048531,0.43106,0.22703,-0.053495,0.15057,-0.28297,-0.23198,0.22707,0.17606,0.0485,-0.053495,0.048561,-0.027956,-0.18097,-0.053451,-0.10445,-0.18096,-0.10445,0.099521,-0.07899,0.176,0.38007,0.71158,0.048555,-0.027925,-0.38496,-0.66551,-0.20649,-0.053476,0.048543,0.22705,0.17599,0.12501,0.074093,-0.002418,-0.15548,-0.23201,0.048536,0.12505,0.30356,0.22705,-0.0535,-0.078959,-0.002423,-0.002479,-0.10445,-0.30851,0.15057,-0.13001,-0.027962,-0.027962,0.22707,0.12499,0.22704,-0.078977,-0.027944,-0.053446,0.12505,-0.33398,-0.38499,-0.078984,0.40551,0.15055,-0.002467,0.048567,-0.38499,-0.4615,-0.078941,0.02301,0.022998,0.17603,0.50755,0.40561,-0.25751,-0.25748,0.20156,0.074087,-0.25746,-0.51254,-0.078953,0.20156,0.15052,0.25259,-0.027987,-0.10447,-0.10447,-0.13001,0.17606,-0.20652,-0.002472,0.048536,0.048518,0.099546,0.07402,-0.027931,-0.12996,-0.10444,-0.283,0.074075,0.023029,-0.23202,0.22707,0.30353,0.32907,-0.027969,-0.28297,-0.33396,0.17607,0.30355,-0.12998,-0.43603,0.073989,0.09951,-0.053482,-0.002448,-0.10448,-0.15547,-0.078947,0.099583,0.04858,0.074044,0.099546,0.023005,0.074013,0.048543,-0.18099,-0.18098,0.048531,-0.002479,0.074069,0.099534,-0.078996,0.023047,-0.002436,-0.027969,-0.10449,0.074051,0.048549,-0.078959,-0.027969,0.023035,0.074051,-0.12999,0.023023,0.15058,0.048555,-0.12996,0.15055,0.1505,0.023023,0.074033,-0.5635,-0.23202,0.099588,0.58411,0.023059,-0.002454,-0.12997,-0.38503,-0.078996,0.22706,0.20154,-0.25753,-0.10449,-0.15545,-0.15545,0.074087,0.023059,-0.23204,0.048487,0.30355,0.15056,-0.002467,-0.02795,-0.12994,-0.25748,-0.12995,0.099559,0.074013,-0.028023,0.023029,-0.18097,-0.15546,0.27803,0.30357,-0.38499,-0.10447,0.38008,-0.12999,0.099564,-0.538,-0.41052,0.20155,0.12506,0.12502,0.15054,0.22707,-0.078953,-0.078972,-0.078996,0.09954,-0.027962,-0.078977,-0.10447,-0.18098,-0.02798,0.023059,0.074081,-0.053488,-0.23199,0.22706,-0.30851,-0.46153,0.22705,0.30356,0.17606,-0.10449,0.099546,-0.002461,0.023035,-0.002443,-0.38501,0.074038,0.27809,-0.078984,0.32908,-0.38498,-0.487,-0.61452,0.09954,0.048512,0.25251,0.38004,0.25258,0.023023,-0.027944,-0.078935,-0.02798,-0.10449,0.22707,-0.078966,-0.002485,0.12504,0.27808,-0.18098,-0.18098,-0.053451,-0.10447,-0.28301,0.023072,0.074044,0.278,-0.027987,-0.12998,-0.15548,0.048549,0.12505,0.048555,0.023084,-0.053446,-0.002467,0.22705,0.48206,-0.1045,0.023023,-0.12998,-0.41047,-0.12996,-0.078984,0.048543,-0.10449,0.099534,-0.07899,0.17603,0.048543,0.15057,0.30357,-0.078947,-0.28295,-0.33401,0.023047,0.12499,-0.028011,0.048531,0.20158,0.27808,-0.25747,-0.46148,-0.15548,0.099491,0.27802,0.048536,-0.027969,-0.18095,-0.28294,0.25256,0.5586,-0.002479,-0.41055,-0.12995,-0.002472,0.12504,-0.027962,-0.20652,-0.053451,0.12506,0.15054,0.023072,-0.027969,0.12503,0.12502,-0.078966,0.048561,-0.078972,-0.25748,-0.20649,-0.25745,0.074013,-0.12996,0.38008,0.022986,0.12504,0.048536,-0.002485,0.27808,-0.38499,-0.46148,-0.078928,0.15054,0.45654,0.48206,-0.15548,-0.2065,-0.002448,-0.20649,-0.0535,-0.18095,-0.12994,-0.10444,0.099546,0.12505,0.15054,0.09954,0.27808,-0.053482,0.17605,-0.12997,-0.12999,0.074026,-0.18099,-0.15549,-0.002479,-0.25748,0.09954,0.15056,0.12509,-0.20648,0.074075,-0.027962,-0.053476,-0.10449,-0.15551,-0.23197,0.25255,0.35454,0.25252,-0.15545,-0.23196,-0.027962,0.074038,-0.002461,-0.05347,-0.15548,-0.078977,-0.053476,0.15059,-0.00243,-0.027969,-0.13,0.023047,0.12504,-0.07899,0.074051,-0.07899,0.099515,-0.053451,-0.23198,0.20155,-0.002491,-0.20649,0.023065,0.099564,0.023054,-0.38499,0.50757,0.048525,-0.33398,-0.18097,-0.078972,-0.027998,0.22705,0.048536,0.048518,0.12504,0.15054,0.20158,-0.027993,-0.078996,0.048573,-0.23197,-0.12999,-0.15547,-0.02792,0.074057,-0.002472,-0.027962,-0.053476,-0.027993,0.07402,0.22707,-0.13002,-0.23204,-0.027974,0.27807,0.27805,-0.027969,-0.053433,-0.18092,-0.28297,-0.283,-0.15548,-0.12995,0.17605,0.43105,0.43103,-0.28297,-0.20643,0.074038,0.22706,0.048518,0.02301,0.25254,0.25254,0.099521,-0.10444,-0.20643,-0.28297,-0.25748,-0.23198,-0.078972,0.023023,0.12505,-0.1555,-0.079021,0.20155,0.17609,0.099559,-0.13005,0.176,0.074051,0.1506,-0.07891,-0.002443,0.099521,-0.15553,-0.25748,-0.18097,-0.00243,-0.053476,-0.002485,-0.028011,0.12504,0.38008,-0.002467,-0.2065,0.023059,-0.027969,0.099559,-0.027956,-0.027969,0.099534,0.17605,0.3291,-0.078959,-0.15549,0.048525,-0.1045,0.048536,-0.12996,0.023065,-0.10449,-0.12999,0.20156,0.074057,-0.38499,-0.13001,0.35454,0.27806,-0.053464,-0.15546,-0.23201,-0.232,-0.078966,0.15054,0.12503,0.12504,-0.027956,0.099559,-0.002479,-0.181,-0.10445,0.048536,-0.05347,-0.053476,0.12505,0.074087,-0.15545,-0.027962,0.22704,0.02301,-0.12999,0.022992,-0.028018,0.25258,-0.02792,-0.30846,0.023041,0.17605,-0.20647,-0.18097,-0.07899,-0.053519,0.12503,0.17607,-0.078966,-0.027956,-0.078959,-0.078959,0.15051,0.048494,0.30358,0.048549,0.048531,-0.10449,-0.078972,-0.51248,-0.027944,0.12506,-0.2575,-0.078959,0.15054,-0.13002,0.048525,0.30355,0.074033,-0.078941,0.09957,-0.053458,-0.078977,-0.027956,-0.05347,0.25256,-0.30856,-0.002443,0.048531,0.25255,0.35459,-0.027931,-0.41051,-0.15546,-0.38502,-0.15551,0.25256,0.099564,0.023065,0.074057,-0.02795,-0.027987,-0.53805,-0.1045,0.48207,0.38006,-0.002454,-0.10449,-0.027938,-0.027925,-0.12994,0.099552,0.12503,-0.181,-0.25752,-0.053506,0.35454,0.20155,-0.02795,-0.20644,-0.23195,-0.053451,-0.027969,0.074062,0.02301,-0.002497,0.15055,0.023054,-0.053488,-0.027962,-0.02795,-0.10447,0.074033,-0.30851,-0.15547,0.45657,0.58405,0.12501,-0.15548,-0.002412,-0.58899,-0.25748,-0.18097,-0.28298,0.023035,0.20153,0.45655,0.099534,-0.02795,0.27808,-0.23199,-0.283,-0.053464,0.17606,0.12504,0.023005,0.099521,0.17609,0.1251,-0.078972,-0.43603,-0.10447,-0.02795,0.074038,-0.13,-0.027969,-0.053458,-0.002485,-0.002479,0.023029,0.048573,0.023035,0.048531,0.15053,0.02301,0.074038,-0.002467,-0.078972,-0.078928,-0.51248,0.023059,0.55858,0.099528,-0.10452,0.074013,0.048543,-0.12995,-0.436,0.099564,0.099546,0.023035,-0.10449,0.099534,0.074013,-0.23199,-0.078959,0.048536,0.15057,0.099583,0.099559,-0.053495,-0.053495,0.074038,-0.181,-0.078966,-0.027962,-0.078966,-0.20649,-0.15548,-0.002443,0.27806,0.63506,0.099534,-0.41048,-0.30848,-0.10449,-0.10449,-0.18098,0.27808,0.4056,-0.35946,-0.25749,0.20153,0.099515,-0.10448,0.15054,-0.002479,-0.02798,-0.12999,-0.12994
