-0.027987,-0.002467,0.074013,0.099546,-0.15548,-0.12995,-0.20642,-0.10446,0.048525,-0.053476,0.09951,0.125,0.17604,0.048536,-0.078972,-0.23196,-0.15548,-0.05347,0.17608,0.048531,0.15058,0.048531,-0.078996,0.023047,-0.10449,-0.15545,-0.10447,-0.078972,0.023023,-0.13,0.074026,0.022986,0.27803,0.15054,-0.12994,-0.20647,-0.078928,-0.20646,-0.078966,-0.002461,0.17603,0.25254,0.15051,-0.10447,-0.027993,-0.053451,-0.12994,-0.20646,0.048555,0.074038,0.023023,0.22702,0.25254,-0.078996,-0.15548,-0.30849,-0.078928,0.099552,0.35458,0.023035,-0.053451,-0.0535,0.099559,0.023017,0.12506,-0.18097,-0.48699,-0.027944,0.17603,0.07402,0.17603,0.17604,-0.15548,-0.05347,0.023059,-0.15548,-0.12995,-0.10449,-0.002497,-0.078996,0.15053,0.38006,0.30357,0.12508,-0.10447,-0.25743,-0.25746,0.04861,-0.078996,-0.002497,0.022974,-0.15553,0.20153,-0.15549,-0.078984,-0.10445,-0.23196,-0.12998,0.15059,0.30355,0.20157,0.2015,0.099521,0.12502,-0.20643,-0.538,-0.10444,0.58413,-0.13,-0.30849,-0.28294,0.12503,0.30353,0.1505,-0.38503,-0.15552,-0.002448,0.58405,0.09957,-0.38498,0.023059,-0.12999,-0.002461,0.20161,-0.20646,-0.10444,0.27807,0.3546,-0.18105,-0.20651,-0.053519,0.17604,0.17609,0.02301,-0.078959,-0.002423,-0.23198,-0.053439,-0.079002,0.12504,0.22709,-0.07899,-0.079008,-0.027956,-0.33401,-0.002461,-0.10443,-0.12995,0.35454,0.89008,-0.002467,-0.30853,-0.15547,-0.078928,-0.283,0.074081,0.2781,0.099491,-0.12997,-0.30852,-0.078972,-0.10452,0.074013,0.048561,0.15059,0.15057,-0.23195,-0.28301,0.30347,0.71166,0.048463,-0.18099,-0.18095,-0.07891,-0.283,-0.12994,-0.15548,0.099577,0.048531,-0.053446,0.099442,-0.23205,0.27803,0.50759,0.68611,0.73714,-0.48695,-0.74193,-0.436,-0.027993,0.02301,-0.027987,0.023017,0.048543,0.17607,-0.2575,-0.15547,-0.078977,0.023023,0.38006,0.20153,-0.079002,-0.10449,0.35458,-0.10447,-0.078953,-0.20646,-0.027925,0.04858,-0.35957,-0.1045,0.71171,-0.002521,-0.18101,-0.10452,-0.10445,-0.2065,0.30361,0.023035,-0.25751,0.099552,0.023035,0.15055,-0.053464,0.048531,0.35462,-0.12996,-0.10451,-0.15551,-0.12998,0.023029,0.22707,0.17605,-0.30846,-0.078972,0.17603,-0.05347,-0.15546,-0.15545,0.35456,-0.23196,-0.1555,0.099546,0.099521,-0.078984,0.074051,0.0741,-0.10451,0.023017,0.12503,-0.053476,-0.027974,0.30363,-0.07899,-0.078972,-0.00243,-0.18097,-0.18097,-0.027969,-0.13001,0.023035,0.15055,0.023023,0.2526,-0.13,0.15059,-0.078996,0.15054,0.09954,-0.20647,-0.15545,-0.181,0.17605,-0.053464,-0.053513,0.023059,-0.25746,-0.23197,0.22708,0.048487,0.15054,0.20153,-0.053495,0.15054,-0.053427,-0.20647,-0.10444,0.023059,0.074051,0.074051,0.023017,0.22702,0.2525,-0.02798,-0.027969,-0.053421,-0.33396,-0.41049,-0.15546,-0.078977,0.17608,0.048525,0.45654,0.71158,0.12505,-0.28297,-0.35948,-0.33398,-0.23197,-0.15551,-0.002454,0.17604,0.048487,0.45656,-0.1045,-0.027956,-0.027944,-0.35947,0.15059,0.074038,-0.002467,0.074013,0.048494,-0.027987,0.30358,-0.38499,-0.23196,-0.15544,0.023029,0.20161,0.0485,-0.028018,0.27808,0.09951,0.048561,-0.10448,-0.181,-0.002412,0.048549,-0.053464,-0.05347,0.074013,0.12504,0.40563,-0.002461,-0.30849,-0.10443,-0.20649,0.099528,0.22705,0.02301,-0.1045,-0.078972,0.048525,0.40558,-0.002423,-0.07899,-0.23199,-0.027889,-0.053488,-0.283,0.12503,0.25252,0.20148,0.20158,-0.12996,-0.28295,0.048598,-0.053506,0.15055,0.17607,0.099497,-0.00251,-0.053476,-0.20651,-0.18095,-0.12994,0.099564,0.099559,-0.053476,0.023047,0.023005,-0.002472,0.099521,0.048536,-0.078953,0.048573,-0.053464,-0.20649,0.074038,0.35456,0.22702,0.12503,-0.30846,-0.30848,-0.18099,0.023041,-0.41049,-0.027987,0.074051,0.074044,0.0485,0.38011,0.12504,0.023017,-0.053476,0.048549,0.023078,-0.15549,0.023047,0.12504,-0.053488,0.40565,-0.15551,-0.181,-0.38504,-0.12996,0.023059,0.15057,0.023023,0.22711,0.099534,-0.13002,-0.18101,-0.002479,0.22707,0.09954,-0.053458,-0.053476,-0.002479,0.25256,0.048536,0.023065,-0.078923,-0.74203,-0.12999,-0.18098,0.40553,0.32908,0.023078,-0.23201,0.074008,-0.23201,0.27805,0.50762,0.048536,-0.23198,-0.053458,-0.30848,-0.181,-0.078984,0.15051,0.20156,0.3801,-0.053464,0.25262,-0.053427,-0.35953,-0.20647,-0.25751,-0.02798,-0.002485,0.22705,0.048536,0.048573,-0.027944,-0.20651,0.023029,0.20155,0.023059,0.048536,0.12502,0.1506,0.023047,0.023035,-0.20647,-0.078923,-0.3595,-0.38502,-0.07899,-0.20654,0.22707,0.048531,0.32902,1.1196,0.074038,-0.35948,-0.18095,-0.15548,-0.23197,-0.027944,-0.15551,-0.1045,-0.13004,0.15059,0.25254,0.4821,0.68614,0.35468,-0.436,-0.64006,-0.48708,-0.078935,0.32904,-0.10447,-0.25753,0.099559,0.17605,0.15057,0.12502,-0.1555,0.048525,0.12504,-0.027969,0.023054,0.12513,-0.10444,-0.10447,-0.13,-0.15548,0.099521,0.40563,0.15049,-0.027993,-0.28303,-0.38498,-0.18095,-0.18099,0.25254,0.5586,0.63509,-0.002472,-0.46155,-0.027938,-0.12993,0.17604,-0.15545,-0.10444,-0.43602,-0.10444,-0.15552,-0.002503,0.20155,0.30353,0.12501,0.22708,-0.12998,0.048536,0.099577,-0.25748,-0.25748,-0.027962,0.099528,0.074002,-0.053446,-0.15545,0.023078,-0.078959,-0.10452,0.15057,0.329,0.17606,-0.02798,-0.18095,-0.41047,-0.3595,0.35463,0.22702,0.1505,0.22701,-0.28303,0.15064,-0.07891,-0.20649,-0.18097,-0.027962,-0.20652,0.023059,0.27808,0.073989,0.35453,-0.02798,-0.15548,0.023084,0.048561,0.17607,-0.15548,0.023047,-0.12996,-0.12996,-0.43604,-0.25752,0.38001,0.53314,0.27809,-0.487,-0.30846,-0.2065,0.22704,-0.027974,0.099528,0.45667,0.17602,0.09954,-0.079033,-0.15549,-0.30846,-0.15551,0.12507,0.40559,-0.30849,-0.18099,0.023054,-0.053421,-0.053476,0.22703,0.22707,-0.078984,-0.027962,-0.20647,-0.385,0.048531,0.30355,0.25252,0.12504,-0.38498,-0.027956,-0.25748,-0.3085,-0.181,-0.002461,-0.078996,0.25253,0.40561,-0.15553,-0.15547,0.023103,-0.053446,-0.10446,-0.05347,-0.181,-0.10454,0.12502,0.43108,0.27813,-0.10448,-0.30849,-0.23202,-0.18097,-0.053488,-0.38499,0.48206,0.22707,0.25257,-0.20648,-0.027974,-0.181,-0.53801,0.30365,0.27811,-0.002552,-0.28305,0.12505,0.17604,-0.10449,0.048555,-0.30849,-0.002485,0.22713,-0.35952,-0.15549,0.15057,0.12501,0.15061,0.35456,0.50757,-0.33399,-0.12991,-0.10447,-0.181,-0.053476,0.17604,-0.027987,-0.28306,0.023096,-0.053439,-0.10447,-0.002467,0.048518,0.25252,0.38002,0.38006,-0.10447,0.15066,-0.20647,-0.41046,-0.53796,-0.10449,0.048536,-0.028018,0.66061,0.20154,-0.13002,0.099521,-0.28299,-0.027944,-0.027956,0.17606,-0.078941,-0.35951,0.55859,0.45654,0.12503,-0.20648,-0.41047,-0.51249,-0.33394,-0.078966,0.048555,0.15053,0.35454,0.125,0.27808,-0.28309,-0.053476,0.22714,-0.05347,-0.002436,-0.38502,-0.028011,0.1506,0.35462,0.048445,0.048536,-0.20652,-0.69096,-0.53795,0.30358,0.66058,-0.30851,-0.027993,0.15051,0.20155,0.20157,-0.002418,-0.23195,-0.35951,-0.12997,0.22705,0.40557,0.20153,0.278,-0.12994,-0.18094,-0.002467,-0.46151,0.22709,0.17606,0.023035,-0.027925,-0.35954,-0.053506,-0.53807,0.27803,0.20154,0.45661,-0.12993,-0.23196,-0.053458,-0.10446,0.12501,0.30358,0.023005,-0.15541,-0.027944,-0.30858,-0.30854,0.63512,-0.002491,-0.15545,-0.51249,-0.53804,0.35458,0.63508,0.58408,-0.027938,-0.3849,-0.33401,-0.002546,0.023047,-0.002448,-0.053531,0.58417,-0.35946,-0.5891,0.48203,0.22704,0.023047,0.17606,-0.15548,-0.35949,0.023084,-0.053506,-0.2575,-0.20647,0.15059,0.12509,-0.12998,-0.027969,0.38009,0.50752,0.15051,-0.25756,-0.23202,-0.027938,-0.20642,0.53308,-0.334,-0.12997,-0.10448,-0.18098,-0.12996,-0.25753,0.074118,0.12505,0.27809,-0.027974,0.27812,-0.079039,0.099521,0.048506,0.58409,0.073995,-0.41055,0.12509,-0.35945,-0.33394,-0.002443,-0.23201,-0.13001,0.45654,0.73708,-0.10449,-0.23196,-0.48698,-0.20642,-0.25749,0.32903,0.48206,-0.18097,-0.46151,0.3801,0.43107,-0.053476,-0.25751,-0.20651,0.099595,-0.027962,0.074026,0.09951,-0.053451,-0.002472,0.074033,0.023059,-0.027944,-0.25748,-0.23197,0.32914,0.20155,0.099521,-0.23202,-0.18108,0.30361,-0.2065,-0.12998,0.12506,0.048561,-0.23197,0.09954,0.50761,-0.078959,-0.18099,0.27809,0.58407,-0.4615,-0.43595,-0.23196,-0.12998,-0.053476,0.048518,0.074026,0.22702,0.15052,0.023005,0.12502,0.27808,0.09954,-0.10447,-0.15543,-0.25747,0.023041,-0.18101,0.099436,0.3291,0.32916,0.22714,-0.3085,-1.0992,0.12505,0.20159,0.048518,0.15055,0.20153,-0.12999,-0.20647,0.32921,-0.18094,-0.23204,0.074008,0.099515,0.482,0.30355,-0.027974,-0.25749,-0.23197,0.048598,-0.053446,-0.181,-0.002443,0.32905,-0.25748,-0.027969,0.30357,0.074044,-0.28303,-0.28297,0.074044,-0.002448,-0.10446,-0.30855,0.15057,0.22702,0.074013,0.27808,-0.35959,-0.28303,0.048561,0.12506,0.20158,0.048561,-0.053451,-0.283,0.048518,0.12507,0.27806,-0.027956,-0.28296,-0.35948,-0.15549,0.023035,0.048487,-0.053427,0.58403,-0.15547,0.074087,-0.35949,-0.18095,-0.12999,0.63507,-0.002467,-0.027969,-0.12998,0.17604,-0.02798,0.20158,-0.20646,-0.23198,-0.10445,0.12508,-0.15551,-0.13001,0.17604,0.40553,0.073977,-0.15546,-0.078972,0.3291,0.023041,-0.28293,-0.58899,-0.25748,-0.25751,0.38008,-0.10447,0.048536,0.32906,0.35458,-0.25756,0.023017,0.68608,0.43106,-0.027901,-0.61451,-0.69101,-0.58902,-0.4359,0.22716,-0.10456,0.76251,0.58402,0.60959,-0.20646,-0.33401,-0.56352,0.25256,-0.053458,-0.002454,0.023084,0.023054,0.048561,-0.15551,0.53309,-0.027987,-0.20647,-0.48704,-0.18095,0.27809,-0.078977,0.1251,-0.02798,-0.13002,-0.079026,0.22706,0.25256,0.40563,-0.078935,-0.38499,-0.56356,0.35458,0.32908,0.35452,0.023072,-0.56353,-0.002381,-0.079021,0.25252,-0.078972,-0.35952,-0.283,-0.078984,0.17607,0.074093,0.023017,-0.0535,0.20155,0.099613,-0.027938,0.27808,-0.2575,-0.20658,-0.028018,-0.02795,0.099564,0.12503,-0.46155,-0.30843,0.12509,0.45661,-0.002443,0.023084,-0.053519,-0.028029,0.022974,0.2781,-0.027993,-0.18095,-0.15542,-0.053446,-0.35952,0.12507,0.30359,0.073935,-0.35953,0.099577,-0.12997,-0.15547,-0.30849,0.71154,0.60958,0.074033,-0.283,-0.002405,-0.18096,-0.15544,-0.56353,-0.15545,0.099521,0.38007,0.074008,0.3036,0.17604,-0.0535,-0.18101,0.1251,-0.33403,-0.078947,-0.283,0.12505,-0.078977,0.89011,0.35455,-0.18099,-0.28299,-0.23196,-0.25748,0.12508,0.099559,-0.053427,0.15054,0.048549,0.099534,-0.30852,0.27805,0.20156,0.048525,-0.15548,-0.027956,-0.181,-0.053427,0.048567,-0.002472,0.30363,-0.079033,-0.10456,-0.002491,-0.15552,0.12509,0.099521,-0.15546,0.38008,-0.25741,-0.027944,-0.12997,0.048525,-0.25751,-0.10448,0.12501,0.20159,-0.078972,-0.002454,-0.18101,-0.002472,0.048536,0.40555,-0.10447,0.22707,-0.25746,-0.15551,-0.053488,0.27811,0.099588,-0.25754,-0.30852,0.38015,-0.10452,-0.078947,0.048561,-0.20652,-0.002485,0.048525,0.12503,0.27808,-0.053488,-0.05347,-0.002436,-0.15545,-0.35947,0.099564,0.17604,0.50755,0.074026,0.25254,0.15052,-0.15545,-0.38498,-0.18095,-0.078959,-0.43599,-0.05347,-0.02798,0.15053,0.12502,0.048543,-0.079021,0.43114,-0.078959,-0.02795,0.48204,0.048518,-0.181,-0.23198,-0.053476,-0.078966,0.023054,-0.12996,-0.10447,-0.30848,-0.18098,0.074051,0.099564,0.15049,0.329,0.15056,0.15056,0.30361,-0.38502,-0.66552,-0.28295,-0.23197,-0.10447,0.099515,0.68604,0.22702,-0.053439,-0.18095,-0.20647,0.15054,-0.35951,0.09954,0.22702,0.074075,0.22704,-0.002412,-0.38503,-0.15545,-0.35953,-0.18096,0.58408,0.4821,-0.027969,-0.25747,-0.027998,-0.053464,0.15055,-0.25754,0.12507,-0.18096,-0.10447,0.17607,-0.002479,0.15059,0.048543,-0.028005,-0.027969,-0.10447,0.2526,0.35458,-0.15546,-0.10447,-0.15551,-0.002467,0.023041,-0.002485,-0.078984,-0.18096,0.15056,0.25256,0.15056,-0.12998,-0.18099,0.17606,-0.15548,-0.13003,0.099534,0.35457,-0.30849,0.023096,-0.12999,-0.2065,0.099613,-0.027962,0.20155,-0.053513,-0.02798,-0.10456,0.023017,0.3801,0.27808,-0.20649,-0.18097,-0.18095,0.17606,-0.079008,0.074033,-0.12996,0.074075,-0.20648,0.30356,0.048536,0.023035,-0.027974,-0.15549,-0.078996,-0.18103,0.023059,-0.46154,0.023096,0.15059,0.50761,0.023072,-0.053513,0.099521,0.074013,-0.23202,-0.12996,0.12504,0.099577,0.15056,-0.25753,-0.027956,-0.0535,0.25257,0.12506,-0.07899,-0.12996,0.12505,-0.283,-0.027907,0.023065,-0.15549,-0.053482,-0.028018,0.25252,0.50756,0.15056,0.048573,-0.20647,-0.28297,-0.027931,-0.35951,-0.053476,0.32904,0.099552,-0.079002,0.17602,0.1251,-0.30844,-0.053488,0.12507,-0.002491,-0.10452,0.27806,-0.13003,0.12511,-0.053488,-0.56356,-0.20645,0.35465,0.09954,0.30355,-0.078996,-0.053476,0.68608,0.17604,-0.12996,-0.53801,-0.20643,0.09957,-0.078972,0.048518,-0.25754,-0.053458,0.20156,-0.23204,0.048585,0.43108,0.074026,-0.10445,-0.18103,-0.002436,0.048531,-0.02798,-0.07899,0.099534,-0.10444,-0.15547,-0.25743,-0.078984,0.32905,0.023035,0.17604,-0.027987,-0.053482,0.023041,-0.23202,-0.25747,-0.12996,0.1251,0.12505,0.09954,-0.18103,0.099521,0.20153,0.09957,-0.002443,0.023114,-0.15546,-0.38506,0.32901,0.6351,0.15055,-0.12993,-0.53803,-0.41051,-0.053378,-0.66556,0.023041,0.2015,0.35459,0.15051,0.15053,0.20157,-0.002454,-0.20652,0.12504,0.099564,-0.02792,-0.10444,-0.15546,-0.181,0.099528,0.17606,0.35453,0.048482,-0.053495,-0.23196,-0.33394,-0.35946,-0.35949,0.12509,0.17602,0.32903,0.22701,0.12504,0.17601,-0.078928,-0.30843,-0.25747,0.12507,0.048536,-0.002497,-0.002461,-0.078996,0.074026,0.023035,-0.15546,-0.002448,0.099564,-0.07899,0.09957,0.17607,-0.002485,-0.00251,0.3546,0.22713,-0.35948,-0.43603,-0.30849,0.02301,0.20155,0.38003,0.25258,-0.002461,-0.23198,-0.2065,-0.10445,-0.078947,-0.078966,0.074069,-0.053476,0.048525,0.022998,0.50754,0.50754,-0.23201,-0.20642,-0.10444,-0.15543,-0.28294,0.17618,-0.25751,-0.15551,-0.28305,-0.10453,-0.079002,0.15057,-0.07899,0.099546,0.22704,0.074044,0.27809,0.40553,0.22708,0.023078,-0.35947,-0.43597,-0.436,-0.283,0.048549,0.30358,0.099528,-0.053537,0.12504,0.32909,0.099552,-0.23195,-0.25744,0.20155,-0.053476,-0.18099,0.074002,0.20153,0.22704,-0.15548,-0.38497,-0.28298,-0.027913,0.099583,0.022986,0.099497,0.073953,0.125,0.58417,0.30359,-0.23198,-0.25745,-0.5125,-0.078917,-0.079008,-0.002454,0.048494,0.25257,0.35456,0.15056,-0.18099,-0.15545,-0.12996,0.17602,0.27804,-0.10446,-0.28299,0.25251,0.074062,0.43105,-0.053451,-0.43602,-0.51247,-0.1299,-0.078947,-0.078977,-0.027974,0.2525,0.63507,-0.079039,0.048525,-0.002467,0.12512,-0.053433,-0.10449,-0.002485,0.30361,0.12504,0.023047,-0.053476,-0.33403,-0.2065,-0.35953,0.074087,0.12507,-0.078953,-0.18101,0.048525,-0.078972,0.35456,0.53308,-0.028011,0.15059,-0.027974,-0.23199,-0.35946,-0.053415,0.099552,-0.15547,-0.18097,-0.43603,0.50755,0.30358,0.17601,0.30363,0.074038,-0.23202,0.048531,-0.30853,-0.18105,0.099559,0.32913,-0.25745,-0.43601,-0.25746,-0.1045,0.09957,0.27807,0.074026,0.22704,0.023005,0.074013,0.074069,-0.15547,-0.23197,0.12507,0.17604,0.20156,-0.18099,-0.25748,0.15052,-0.053439,-0.18098,-0.12995,-0.28302,-0.18099,0.25254,0.63504,0.22707,-0.1555,-0.33394,-0.078917,-0.58901,-0.10446,-0.078996,-0.079008,0.60963,0.15044,0.023005,-0.28302,0.074051,0.15056,0.1506,0.074093,-0.15545,-0.25748,-0.25749,0.09954,-0.002472,0.07402,-0.053476,0.074062,-0.10445,0.099534,0.17604,-0.053482,-0.1045,0.25254,-0.15551,-0.053451,0.35461,0.023059,-0.25748,-0.18093,-0.48704,-0.23203,0.43113,0.3545,0.43107,-0.10447,-0.23196,-0.10446,-0.078935,-0.25751,-0.23199,-0.07899,0.25258,0.32902,0.25253,0.12505,0.099564,-0.18098,-0.20647,0.15059,-0.078947,0.023035,0.023059,-0.078996,-0.053495,-0.053495,0.07402,0.04858,-0.053482,-0.20651,-0.002454,0.27806,0.43107,-0.12996,-0.13,-0.18094,-0.51256,-0.002412,0.38018,-0.053451,-0.33405,-0.10452,0.30355,0.099485,0.27802,0.20156,-0.053458,-0.078923,-0.027925,-0.41054,0.099608,0.27811,0.023029,-0.13004,0.02295,0.30354,0.27808,-0.35949,-0.30846,-0.41046,0.2271,0.50763,0.50752,0.099497,-0.20648,-0.38501,-0.56352,-0.58903,-0.51254,0.32911,0.27805,0.35456,0.20153,0.20154,0.25256,0.048555,0.074051,-0.23201,-0.23194,-0.00243,-0.18099,-0.18098,0.07402,0.023023,0.17604,0.20155,-0.10447,-0.15545,-0.20648,-0.12997,0.048525,-0.027962,0.25259,0.27807,-0.25756,0.074051,-0.02795,-0.18097,0.25257,-0.12999,-0.002448,0.074002,-0.002467,0.20153,0.43106,-0.10449,0.048592,-0.6145,-0.58899,-0.002448,0.25254,0.023059,-0.10452,0.15056,-0.002534,-0.13,0.17605,0.27805,-0.18094,0.1506,0.099595,-0.053513,-0.078966,0.15052,0.048506,0.074051,-0.25751,-0.18095,-0.41046,-0.20648,0.32902,-0.12998,-0.078947,0.12504,0.15055,0.53302,0.40558,0.074075,-0.30843,-0.33396,-0.28297,0.023041,0.074002,-0.028018,0.12505,-0.18101,0.22711,-0.053482,0.38011,-0.002461,-0.15548,-0.23201,0.074051,-0.10452,-0.027944,0.17607,0.25257,-0.078972,-0.23196,-0.027974,0.38007,-0.078984,0.023047,-0.07899,-0.18096,-0.12995,-0.027956,0.09957,-0.20649,-0.002467,-0.002497,0.17605,0.30356,0.22707,-0.002479,-0.053495,-0.078977,-0.078941,-0.35953,-0.23205,0.099528,0.25263,-0.12999,-0.053495,0.099588,0.048531,-0.002436,-0.002448,0.27808,-0.027969,-0.078972,-0.30853,-0.079008,0.074033,0.074038,0.17603,0.20156,-0.078972,-0.33398,-0.10448,-0.10444,0.12504,0.023035,0.048543,-0.10451,-0.18097,0.17609,-0.027993,-0.002443,-0.13,-0.02798,0.04858,0.22707,0.4566,0.048518,-0.33408,-0.53807,0.22713,-0.18101,-0.00243,0.17611,-0.002443,-0.13,-0.053506,0.048518,0.074044,0.20156,-0.078947,-0.28299,-0.10447,-0.078996,-0.027974,0.20155,-0.078996,0.20155,-0.002467,-0.053476,-0.10445,-0.078947,0.023017,0.27806,-0.23199,-0.18098,0.074026,-0.12996,-0.10448,0.15061,-0.10445,-0.12998,-0.053488,0.278,0.17604,0.22705,0.074033,-0.078959,-0.10446,0.023072,-0.20647,-0.053482,0.30361,-0.002467,-0.23204,-0.38505,-0.002443,0.12504,-0.053495,-0.002423,-0.027974,-0.027974,-0.10446,0.099595,-0.35953,0.048512,0.30349,0.3546,0.45658,-0.10446,-0.1554,-0.38499,-0.23197,-0.078953,0.074044,-0.053495,0.02301,0.22702,-0.18101,-0.053451,0.074069,0.17607,0.38009,0.15057,-0.23199,-0.078953,-0.002491,-0.10451,-0.078966,0.023017,-0.12998,-0.053427,0.048561,-0.002467,0.023072,0.17604,0.30352,0.15055,-0.002461,0.12509,-0.053433,-0.18097,-0.23197,-0.15551,-0.20656,0.32912,0.1505,0.048531,0.023072,0.15058,-0.002436,-0.18097,-0.2065,0.12505,0.35458,0.074038,-0.079008,0.12501,0.099546,-0.12995,-0.25747,-0.56351,-0.12993,0.12505,0.17606,0.074008,0.048512,0.22705,0.48208,0.17605,-0.5125,-0.33394,-0.002461,-0.002467,-0.10451,0.073995,0.48211,0.023017,-0.02795,-0.15545,-0.30848,-0.18098,-0.28298,0.023017,0.3291,0.53311,-0.10453,0.07402,-0.10448,-0.28297,-0.30846,-0.3085,-0.078953,0.17608,0.30359,0.15054,0.12503,-0.00251,-0.078996,0.32905,0.22708,-0.35952,-0.38499,0.023084,0.074038,0.17606,0.023005,0.048567,0.30356,-0.28298,-0.23198,-0.15545,-0.002418,-0.027969,0.12504,0.074008,0.17602,0.32904,0.22704,-0.25751,-0.18098,-0.027944,-0.12995,0.30363,-0.078977,-0.20649,-0.28305,-0.38507,0.35461,0.12504,0.048549,-0.053397,-0.078959,0.023041,0.35456,-0.078984,-0.053495,0.099528,0.15057,-0.078977,-0.33404,-0.33399,0.023065,0.12508,0.099546,0.32903,0.25251,-0.10446,-0.15548,-0.1555,-0.20651,0.07413,0.099626,-0.283,-0.18099,-0.028029,0.32903,-0.079014,-0.027969,-0.15552,0.12509,-0.053427,-0.20649,0.12509,-0.35954,0.048525,0.40559,0.22707,0.074038,-0.079008,-0.053451,-0.12996,0.023054,-0.053427,-0.181,0.125,0.17604,0.074051,-0.078941,-0.12998,0.02301,-0.15545,0.15052,-0.078972,-0.18097,-0.15549,-0.028029,0.53315,-0.10448,-0.053476,-0.078966,-0.23203,0.20156,0.35458,-0.002491,0.023047,0.20156,-0.10446,-0.002443,-0.18097,-0.078947,-0.027925,-0.1045,-0.079008,-0.12999,0.35456,0.17601,0.17604,0.048543,0.22711,-0.28295,-0.25748,-0.10444,-0.38503,-0.078959,0.27802,0.48206,-0.10451,-0.079008,0.15059,-0.25746,-0.38496,-0.15545,0.023035,0.048536,-0.027974,0.22704,0.63505,0.22704,0.09954,-0.30847,-0.28298,-0.10444,-0.20649,0.20159,-0.23201,-0.13002,0.099528,0.0485,0.12505,-0.05347,-0.15547,0.099577,0.12507,0.35458,-0.053513,-0.078977,0.048512,-0.10452,-0.002454,-0.28297,-0.41048,0.099608,-0.053488,-0.002472,0.048536,-0.053519,0.6606,0.73707,-0.053482,-0.53806,-0.41044,-0.30843,-0.20645,0.12505,0.30355,-0.079033,0.17606,-0.00251,0.023047,-0.2575,-0.38497,-0.25751,0.43117,0.48205,-0.1555,0.12505,0.32908,0.074002,-0.25748,-0.30847,-0.30845,-0.18098,0.12504,0.023023,0.074038,0.30356,0.074033,-0.13002,0.023047,-0.10446,0.17611,0.12504,0.022992,-0.15548,-0.25748,-0.15552,-0.027962,0.22707,0.27805,-0.10446,-0.23196,-0.20644,0.074033,0.074033,0.12504,0.20153,0.25251,-0.15553,-0.20648,-0.12993,-0.10441,-0.10447,0.25259,0.074062,-0.027987,0.12504,0.20155,-0.027987,0.17606,-0.1045,0.048549,-0.027969,-0.35948,-0.23195,-0.33401,-0.053506,0.074038,0.4056,0.17604,-0.027969,0.27812,0.023054,-0.35953,-0.334,0.25254,0.32904,0.17604,-0.23197,0.048536,-0.053439,-0.20644,-0.28297,-0.027962,0.099552,-0.079002,0.0485,0.20156,0.023017,-0.053513,-0.027944,-0.18095,-0.027962,0.2271,-0.027987,-0.002491,0.35453,-0.002485,-0.1045,-0.33398,-0.20644,-0.078941,0.074013,0.48209,0.17604,-0.46153,0.099601,-0.20646,-0.002521,0.023029,0.023035,0.20159,0.023035,0.09954,-0.002472,0.074044,0.074038,0.25254,0.12507,-0.23201,-0.12997,-0.35951,-0.12997,-0.053439,0.12509,0.074026,0.074044,0.099534,-0.15549,0.15057,-0.053439,-0.078984,-0.10446,0.099503,0.20156,0.099521,0.023023,0.17607,-0.30852,-0.15544,-0.053458,-0.18097,-0.30852,0.074044,0.30355,0.17599,0.20152,-0.027931,0.09954,-0.18095,-0.38495,-0.18094,-0.15548,0.15052,0.25256,-0.002503,0.20152,0.12502,-0.002436,-0.41049,-0.10444,-0.053439,-0.053464,-0.05347,-0.002497,-0.053531,0.53311,0.45661,-0.35958,-0.48705,-0.23199,0.15059,0.30358,-0.027956,-0.15547,-0.078972,-0.002479,0.27808,0.15053,-0.12996,-0.18092,-0.23195,-0.35949,-0.15554,0.048531,0.35453,0.099473,0.55859,-0.002448,-0.053415,-0.07891,-0.23197,0.30356,0.20152,0.048531,-0.53803,-0.12995,0.20158,-0.027962,0.32918,-0.43609,-0.38504,-0.053506,0.32904,0.25257,0.25257,0.17604,0.45658,0.35464,-0.15548,-0.25745,-0.33396,-0.078966,-0.15547,-0.12999,0.023029,0.023017,0.25252,0.20152,-0.027962,0.25257,-0.1299,-0.3595,-0.30851,-0.18099,-0.028005,0.15055,0.22704,0.12504,0.22706,0.17609,-0.078959,-0.15542,-0.078953,-0.053525,0.0485,0.17604,0.17611,-0.12998,-0.181,-0.078935,-0.20648,-0.15546,0.048525,0.12505,0.099559,0.048487,0.022992,0.048506,-0.002467,-0.053451,-0.25744,0.17609,-0.078972,0.17604,0.12504,0.074008,-0.053464,-0.18098,-0.02798,0.074069,-0.23194,-0.25749,0.074013,0.30358,0.15052,0.09954,0.12504,0.023065,-0.23199,-0.5635,-0.20643,0.22708,0.38003,0.20154,-0.053488,-0.15555,-0.1555,0.32914,-0.10447,-0.027956,-0.30848,-0.027969,-0.078966,0.048531,0.20161,0.022992,0.30357,-0.00251,-0.078972,-0.15549,0.074069,-0.12997,-0.25747,-0.13,-0.078966,-0.027969,0.0485,0.40562,0.048543,-0.15544,-0.12997,-0.027974,-0.078984,0.099534,-0.13001,0.12505,-0.1045,0.50767,-0.002443,-0.053525,-0.28297,-0.20652,-0.33404,0.22707,0.32909,0.2015,-0.002491,0.15057,-0.02795,-0.053446,-0.30846,-0.10443,-0.10445,-0.078972,-0.002521,0.176,0.12501,0.20149,-0.002479,-0.10442,-0.53795,-0.41046,0.35464,0.53306,-0.10448,-0.078984,-0.20652,-0.20649,0.023005,-0.181,0.15059,-0.12997,-0.15551,-0.027969,0.4311,-0.079088,0.38011,0.58422,-0.28303,-0.3595,-0.3085,-0.15548,-0.20652,0.023041,0.099528,0.099552,0.27805,0.25258,0.12504,-0.12996,-0.12993,-0.1555,0.023041,-0.028005,-0.05347,0.099521,0.27804,0.12507,-0.35946,-0.38499,-0.35946,-0.25751,0.22705,0.27805,0.17606,-0.10456,0.58417,0.15059,-0.2575,0.17607,-0.002454,-0.35952,-0.053421,-0.18101,-0.12999,0.073984,0.27805,-0.028011,-0.10445,-0.10445,0.30364,0.40559,-0.18099,-0.15548,-0.15547,-0.10447,-0.12999,0.023035,-0.20652,0.048518,-0.078923,0.22711,0.2525,0.27808,-0.002485,0.02301,-0.079002,-0.12999,-0.18099,0.04858,-0.18095,-0.10445,-0.181,0.40564,-0.18103,0.099503,0.048482,0.17609,-0.053476,-0.078984,-0.078972,-0.23196,0.048585,-0.10449,-0.15552,0.15051,0.25258,0.12506,-0.2575,-0.10444,0.2271,-0.027944,-0.027944,-0.181,-0.20652,0.12504,-0.053506,0.43107,0.48205,0.35456,-0.15541,-0.43596,-0.71653,0.27812,0.25259,-0.33409,0.20156,0.048512,-0.053488,0.074057,0.048555,-0.002472,0.20157,0.12504,-0.028005,-0.002503,0.048512,-0.027969,0.023054,-0.28298,-0.538,-0.078935,0.35457,0.048555,-0.18098,-0.027993,0.15052,0.27805,0.22703,-0.23194,-0.38496,-0.053464,-0.33396,-0.15548,0.15054,0.48203,0.12507,0.15054,0.099552,-0.283,-0.23198,0.1506,0.073989,0.20155,0.2526,-0.07899,-0.10447,-0.28305,0.15058,-0.10447,-0.25745,0.12508,0.099552,-0.027974,0.074044,0.12502,0.074026,-0.2065,-0.10443,-0.38496,-0.41051,0.15058,0.15051,0.43104,0.17598,0.32908,-0.46153,-0.30847,-0.027974,0.27809,-0.35948,0.15057,0.048549,0.38006,-0.10449,-0.12998,-0.12998,0.25252,-0.078953,-0.23201,-0.28301,0.099626,0.35454,-0.18097,-0.28303,-0.0535,0.20156,0.25256,-0.10449,-0.15545,-0.25747,-0.12996,-0.078977,0.30359,0.22703,0.20149,0.048555,-0.027969,-0.053433,-0.41049,0.074062,0.4821,0.048506,-0.48701,-0.283,-0.15549,0.048512,0.048543,0.38011,0.20155,-0.15546,-0.002443,0.35459,-0.30855,-0.23204,0.048561,0.22706,-0.18099,-0.20653,0.048567,0.074081,-0.1045,0.12505,0.20153,0.27809,-0.027993,-0.13,-0.20649,-0.35952,-0.18091,-0.15548,-0.20647,-0.078972,0.40557,1.0176,0.40554,-0.002479,-0.33402,-0.58904,-0.33394,-0.25743,-0.078972,0.17607,-0.1555,0.02301,0.074044,0.12498,0.50756,0.58409,-0.002448,-0.28294,-0.18093,-0.30848,-0.15545,-0.002485,-0.053495,0.15052,0.27805,0.17604,-0.078972,-0.18095,-0.18098,0.12511,-0.12998,-0.10451,0.074002,0.12502,0.12505,-0.053464,-0.15549,-0.00243,-0.027974,-0.12995,-0.232,0.048536,0.35458,0.58405,-0.28299,-0.10449,0.023059,-0.027938,-0.18096,-0.25749,-0.35951,-0.027969,0.023005,0.17604,0.45653,0.20158,0.074069,-0.053451,-0.15547,-0.07899,-0.12998,-0.002479,0.22709,0.023023,-0.078996,0.048555,-0.181,0.048592,-0.002436,0.048561,0.074013,-0.002472,-0.079008,-0.12999,-0.283,0.25257,0.4311,-0.002461,-0.12997,-0.078977,-0.23205,0.50766,-0.13005,0.15057,-0.053458,-0.13002,-0.15546,0.023059,0.20159,-0.15553,-0.18097,-0.10447,-0.028005,0.17602,0.15054,-0.002454,0.048561,-0.10441,-0.12994,-0.15547,-0.13,0.20153,0.15054,0.17604,-0.053513,-0.38506,-0.20651,0.1506,0.023078,0.074069,-0.12994,0.02301,0.074044,0.074008,0.022992,0.023047,-0.15547,-0.12993,-0.30851,0.048561,0.17604,-0.25752,0.27799,0.32902,0.38008,0.074069,-0.56346,-0.43598,0.12509,-0.027969,0.074057,-0.027969,0.048512,0.12502,-0.12997,-0.35954,0.048561,0.15055,0.099595,0.17605,-0.05347,-0.13002,0.099559,0.45659,0.074026,0.048536,-0.15543,-0.15546,-0.23198,0.099534,0.2016,-0.079008,-0.18101,-0.00251,0.074038,0.023047,-0.12994,-0.181,0.40561,0.27803,-0.25744,-0.25751,0.17607,0.074057,-0.02798,-0.12999,-0.10449,0.25257,0.32907,0.27803,-0.23198,-0.053439,-0.20647,-0.13001,-0.002479,0.074051,-0.053439,-0.12991,-0.027944,0.048531,0.073959,0.60954,0.5076,0.20155,-0.30852,-0.30847,-0.51244,-0.28294,-0.23197,-0.002479,0.023017,0.30355,0.074013,0.099497,0.15054,0.2526,0.12509,-0.2575,-0.027993,0.048531,0.048549,0.048525,-0.027962,-0.053482,-0.10449,-0.02795,0.048561,-0.10447,-0.002436,-0.1045,0.074069,0.32908,-0.15551,-0.23205,0.20149,0.40561,0.12509,0.099577,-0.35949,-0.46151,-0.20644,-0.20649,-0.078977,0.022998,0.07402,0.20153,0.2271,0.099534,-0.13004,0.20155,0.22706
-0.385,-0.078959,-0.15548,0.12505,0.02301,0.022998,-0.079008,0.17607,0.35465,0.17616,-0.18101,-0.28303,-0.33404,-0.078996,-0.38508,0.22705,0.45659,0.43112,0.074081,-0.25749,-0.20646,-0.23198,0.023054,0.048536,-0.00251,0.073995,0.25254,0.17604,0.20157,-0.15546,-0.15545,-0.33399,-0.078972,-0.18101,0.074033,0.32907,0.023035,0.20156,-0.027944,-0.002443,-0.027944,-0.12999,-0.078966,-0.13,0.099528,0.12503,0.12501,0.30358,0.17607,-0.18098,-0.35946,-0.35952,0.099564,-0.053495,0.074013,0.15054,0.15054,0.3036,-0.027962,-0.027956,-0.12994,-0.30852,-0.027969,-0.027998,0.30354,0.27808,0.20156,-0.15547,-0.078966,-0.33399,-0.2575,0.12507,0.09954,0.25258,-0.10452,0.15056,-0.002467,0.074051,-0.027944,-0.12998,-0.15548,-0.28303,-0.10449,-0.079008,0.12504,0.12503,0.30358,0.023047,0.099577,-0.078935,-0.078935,-0.18098,-0.15551,-0.027993,-0.027987,0.12502,0.25257,0.099546,-0.2065,-0.15546,-0.002443,-0.10449,0.048543,-0.2065,0.048531,-0.07899,0.20156,0.25258,0.15056,0.023072,-0.20646,-0.12997,-0.232,-0.13001,0.22704,0.099521,0.099521,0.17607,-0.002461,0.099601,-0.20645,-0.15548,-0.15548,0.048531,0.12504,0.099503,0.27806,0.099559,0.074062,-0.20646,-0.28299,-0.053464,-0.10449,-0.027987,0.048512,0.07402,0.22707,-0.053458,0.048555,-0.00243,-0.02795,0.074075,-0.43602,-0.13,-0.25754,0.22702,0.48208,0.17606,0.30358,-0.12994,0.099552,-0.28297,-0.10447,-0.053451,-0.027987,-0.002485,-0.002454,-0.15549,0.32908,-0.002454,0.023047,-0.078959,0.07402,-0.078984,0.099521,0.074038,0.099534,0.023047,-0.02795,-0.002418,-0.334,-0.078966,0.07402,0.099552,-0.053488,-0.10449,0.074038,0.3036,0.15059,-0.25749,0.023041,-0.12998,0.099534,-0.25753,0.099528,0.12503,0.30357,0.048555,-0.18101,-0.053433,-0.23199,-0.12996,-0.05347,0.27809,0.48209,-0.028011,0.48207,-0.002461,-0.12994,-0.41049,-0.71654,-0.20648,0.12509,0.12503,0.27802,-0.053519,-0.25754,0.074038,0.20158,0.099588,0.20156,0.17601,0.43113,-0.51251,-0.53801,-0.28302,0.89006,-0.15551,-0.436,0.15057,0.17611,0.25258,-0.20644,-0.51249,-0.15548,0.048512,0.45653,-0.002503,0.43107,-0.078941,-0.23199,-0.10446,-0.13,-0.02798,-0.002521,-0.053513,0.25257,0.12505,-0.20647,-0.33394,-0.07891,0.53311,0.20156,-0.18101,-0.25749,-0.2065,0.20149,0.35458,-0.027956,-0.20647,-0.12991,-0.053433,-0.027998,0.45658,-0.18099,-0.13001,0.20156,-0.078984,0.023041,-0.10447,-0.20647,-0.10445,-0.02798,0.22704,0.099503,0.15053,0.17606,-0.1045,0.099588,-0.15543,0.074075,0.074026,0.15054,-0.43602,0.20154,-0.2065,0.20157,-0.48708,0.22704,0.73713,-0.053402,-0.23196,0.15059,-0.28302,-0.35956,-0.25751,0.35458,0.91559,0.074057,-0.12996,-0.51249,-0.23198,-0.30852,-0.13001,-0.027969,0.45659,0.78808,0.27806,-0.18097,-0.10439,-0.51251,-0.18098,-0.23201,0.53311,-0.15545,0.048549,0.15059,-0.30855,0.073995,0.25252,-0.027956,-0.078947,-0.10447,-0.02798,0.25255,0.12507,-0.25748,-0.078966,0.40558,-0.027944,0.048549,0.27807,-0.10449,-0.51254,0.048525,0.023035,-0.053513,-0.28298,0.32912,0.023059,0.32914,0.022998,-0.002461,-0.20652,-0.053506,0.30357,-0.20652,-0.05347,-0.12997,-0.053458,-0.078959,-0.23198,0.1251,-0.33402,0.35453,0.68608,0.38006,0.22708,-0.28296,-0.078977,-0.61451,-0.23198,-0.10445,-0.181,0.023017,0.09954,0.17603,-0.079008,0.20157,0.074069,-0.10447,0.12506,0.53311,-0.33404,-0.18103,-0.18101,-0.2065,-0.053446,0.55865,0.048531,0.023072,-0.51248,-0.20651,-0.079021,0.074013,-0.078984,0.40563,0.12504,-0.23197,0.12509,-0.15549,-0.027962,-0.23201,-0.053488,0.22701,0.12503,0.20156,-0.23204,0.074087,-0.30849,-0.15545,-0.41053,-0.002436,0.099534,0.20157,-0.053482,0.38006,0.20155,-0.12997,0.048561,-0.38498,0.023072,0.17602,-0.12997,-0.18098,-0.13,-0.079021,0.38007,0.25257,-0.20644,0.074081,0.15055,-0.05347,-0.20649,-0.079021,0.27808,0.099546,-0.078984,-0.12996,-0.12993,0.048561,0.12501,0.86459,-0.35951,-0.33399,-0.25749,0.20158,0.099515,0.15056,-0.20647,-0.20647,-0.4105,0.048549,0.074038,0.17603,0.32904,0.43111,0.20157,0.048567,-0.48703,-0.385,-0.5125,-0.3595,0.38005,0.8901,0.09954,-0.18099,0.17604,-0.18097,-0.28298,-0.12997,0.048518,-0.56348,-0.20646,0.17604,0.12496,0.43107,-0.18097,0.17607,0.15059,-0.28302,-0.48701,0.099503,0.48211,0.96665,-0.20658,-0.053482,-0.078928,0.048604,-0.64006,0.023108,0.02309,-0.5891,-0.38499,0.25256,0.96664,0.32903,-0.25754,-0.053427,-0.28302,0.074087,-0.10447,0.15052,-0.232,-0.10447,0.099515,0.099564,0.048506,0.27814,-0.51252,-0.3084,0.58409,0.38001,-0.53804,-0.10451,-0.38503,-0.181,0.30362,0.40555,0.27621,0.27806,0.27814,-0.33401,-0.28299,0.32915,-0.053495,0.17603,-0.30856,-0.56363,0.71177,-0.33401,-0.027938,0.30354,-0.23199,-0.20649,0.20156,0.15053,-0.002467,-0.078966,0.099546,0.048616,-0.43598,0.30357,-0.23202,-0.10448,0.94128,-0.15551,0.17602,-0.38511,-0.028036,-0.20648,-0.12995,0.20164,-0.48702,-0.027974,0.20155,0.63514,-0.002467,-0.12998,-0.28303,0.099552,-0.10447,-0.053488,0.048536,0.32909,0.25259,-0.20656,-0.05347,-0.078996,-0.28298,-0.002418,0.099619,0.25257,-0.05347,0.023041,-0.079039,-0.053513,0.048518,0.22707,-0.053446,-0.41047,-0.10448,0.71171,0.048561,-0.35961,-0.053482,-0.18103,-0.053458,-0.079014,0.023103,-0.23197,-0.002503,0.73709,-0.053482,-0.10446,-0.18103,-0.2065,-0.002485,0.048573,-0.20646,-0.15546,0.20155,0.048567,-0.002491,-0.15547,0.38002,-0.232,-0.053488,-0.078947,-0.33403,-0.20647,0.2271,-0.15553,0.099588,0.1506,-0.18106,0.09954,-0.028018,-0.18099,-0.02795,-0.12994,0.25262,-0.02795,-0.079021,-0.15552,0.25254,0.17607,0.17606,-0.078977,-0.078935,0.12514,-0.58909,-0.10447,-0.2065,0.35453,0.17603,0.60957,0.023029,-0.41047,-0.61453,-0.25746,-0.18098,-0.12999,0.63512,0.048445,0.12505,-0.002405,-0.18102,0.099552,0.099595,-0.027974,0.12507,-0.232,0.074057,0.176,-0.078977,-0.0535,0.15058,-0.05347,-0.30854,-0.18098,-0.078972,-0.23199,0.38012,0.12509,-0.053525,0.022998,0.099546,0.074013,-0.002418,-0.23193,-0.28297,-0.053495,0.048555,0.17607,-0.15549,0.15047,0.15051,-0.18101,0.20167,-0.385,-0.20646,-0.027956,0.17604,0.35454,0.048525,-0.053495,0.023047,-0.002423,-0.2065,-0.18096,-0.25749,0.45659,-0.12996,0.022992,0.15056,0.048531,0.099564,-0.2065,0.023047,0.30364,-0.053495,-0.027962,-0.20651,0.074033,-0.002461,-0.0535,-0.002479,0.12509,-0.05347,-0.25749,0.20162,0.12507,-0.12999,0.17601,-0.13003,0.17609,-0.1045,-0.13001,-0.078917,-0.25751,0.048555,-0.002448,-0.053458,0.023029,0.074044,0.27803,0.099528,0.099521,-0.15548,-0.02792,-0.18097,-0.18099,-0.20648,0.45656,0.27801,-0.002472,0.09957,-0.05347,-0.18094,-0.23195,-0.41049,-0.078996,0.09954,0.15055,0.27808,-0.10455,0.048536,-0.002497,-0.20648,-0.053446,0.25263,-0.20656,-0.002467,0.15058,-0.1555,-0.13002,-0.027969,0.55862,-0.46152,0.02309,0.074044,-0.18098,-0.10449,0.60956,0.38007,-0.1555,-0.12995,-0.20646,-0.15543,-0.25748,-0.00243,0.38011,0.12499,0.074002,0.20153,-0.027969,0.15056,-0.33399,-0.12995,-0.25749,0.048567,0.048536,0.20154,-0.079021,0.074026,0.12505,-0.12999,-0.053446,-0.181,0.40571,0.20158,-0.002448,-0.05347,-0.25753,0.022986,-0.20652,-0.13004,-0.12996,-0.027944,0.32911,-0.078923,0.099546,0.02301,0.15053,0.27805,0.17605,-0.20651,-0.25748,-0.027944,-0.078947,-0.027969,-0.10445,-0.053495,-0.028005,0.20152,0.17608,0.0485,-0.05347,-0.30851,0.048641,0.099613,-0.10447,-0.10453,0.4311,-0.30855,0.023035,0.38017,-0.079008,-0.20647,-0.23201,-0.053451,0.048531,-0.027969,0.023005,0.022998,0.20154,0.2271,-0.12998,-0.027931,-0.18094,-0.002412,-0.15549,-0.25753,0.2271,0.02295,0.17603,0.68605,0.40557,-0.58898,-0.18086,-0.69102,-0.35949,-0.002503,0.25254,0.02301,0.20153,0.25252,-0.053451,0.023059,-0.15543,-0.15548,0.023059,-0.002485,0.12507,0.15054,-0.053519,0.27808,-0.053458,-0.20648,-0.15544,-0.30854,0.35459,-0.079002,0.22707,0.15057,-0.13001,0.074038,-0.18103,0.074087,-0.35951,0.023096,-0.23202,0.023054,0.15059,0.32905,0.27805,0.09954,-0.20648,-0.12997,-0.30851,0.17605,0.17609,-0.028005,-0.027962,-0.1045,0.048549,0.30353,-0.25754,-0.02792,0.048573,-0.23198,0.09957,0.32908,0.15054,-0.12999,-0.10449,0.074013,0.15057,-0.053458,-0.078935,-0.15545,0.048573,-0.23198,-0.002503,0.048482,0.27803,-0.10452,-0.002454,0.22716,-0.53802,0.023096,-0.028011,0.0485,-0.078984,0.50758,0.099466,0.17611,-0.43602,-0.48702,-0.51248,-0.3085,0.2271,-0.053495,-0.002461,0.60955,0.07402,0.02301,-0.05347,-0.33404,-0.053476,0.2271,0.25262,-0.35948,0.2271,-0.18102,0.12506,-0.002467,-0.20653,-0.43602,0.22713,-0.02798,-0.002497,-0.027993,0.074013,0.12506,0.022998,0.048525,0.2271,-0.078966,-0.35945,-0.053421,-0.23197,0.35453,0.32907,0.40561,-0.028029,-0.18097,-0.33403,-0.3085,-0.053458,-0.18095,0.12505,-0.15553,0.27809,-0.002521,0.15054,0.43106,0.023035,-0.23195,-0.12995,-0.10443,-0.1045,-0.053513,0.074044,0.099546,-0.079008,0.15057,0.20159,0.15057,-0.28295,0.099497,0.20162,-0.46155,0.048531,0.074033,-0.079008,0.15058,0.15054,-0.53804,-0.12995,0.45667,0.12501,-0.18101,-0.002461,0.023029,0.023047,-0.00251,0.099546,0.023084,0.17614,-0.002479,0.099601,-0.30856,-0.053476,-0.028005,-0.053488,0.17606,-0.10449,-0.002461,-0.10443,-0.15545,0.09957,0.12501,0.32906,0.50759,0.022986,-0.20647,-0.20646,-0.51249,-0.28295,0.023103,-0.15549,0.22707,0.022992,0.20151,0.048476,0.02301,0.27812,0.20158,-0.15548,-0.20644,-0.15549,-0.15549,-0.002467,0.20153,0.20153,-0.002472,0.15061,-0.28305,-0.20644,-0.10444,0.099559,-0.2575,0.048531,0.76261,-0.002546,-0.002448,-0.18101,-0.12994,-0.35949,-0.23194,0.22705,0.30356,-0.20652,0.20155,-0.053495,0.074033,-0.078966,0.45664,-0.23196,-0.23199,-0.002461,-0.1555,0.09957,-0.027974,0.12501,-0.078966,0.17604,-0.18098,-0.027956,-0.053433,0.12507,0.023005,-0.002443,0.074026,-0.28303,-0.002485,-0.002497,0.023054,-0.002443,-0.027925,0.20156,-0.002467,-0.13001,-0.23202,0.22707,0.17604,-0.10446,-0.33401,-0.12997,0.4056,0.048567,-0.027962,-0.13,0.15054,-0.1045,0.20151,0.048573,-0.12996,-0.10445,-0.002436,-0.13,-0.027969,-0.027993,0.15052,0.35455,-0.02798,-0.027962,-0.28294,-0.053433,-0.283,-0.027956,0.02301,0.35456,0.12501,0.17606,0.074081,-0.46157,-0.28298,-0.078879,0.074038,0.023041,0.17604,0.074044,0.048506,0.023029,-0.078966,-0.15551,0.048592,0.074093,0.30363,0.09954,-0.002497,0.17598,-0.2575,-0.38502,0.35456,0.48207,-0.02798,-0.38496,-0.33395,-0.12993,-0.12998,0.048518,-0.181,0.278,0.15051,-0.13004,0.4567,-0.20646,-0.027969,-0.10448,-0.30854,0.20158,0.15052,0.074008,0.099552,-0.027969,0.023072,-0.027931,-0.002418,-0.12998,-0.027956,-0.028018,0.074026,0.60959,-0.027956,-0.23199,-0.25748,-0.30849,-0.027962,0.048555,-0.25756,0.1761,0.30353,-0.13001,-0.002503,0.43105,0.15057,-0.25742,-0.283,-0.25748,-0.053446,-0.053488,0.12504,0.20153,-0.02798,0.30358,-0.10447,-0.30848,-0.20651,0.2016,0.20159,-0.07899,0.27808,0.099552,-0.079033,-0.078984,-0.078972,-0.15543,0.023065,-0.38503,0.023041,0.32904,0.20154,0.40556,0.48209,-0.38499,-0.41047,-0.5635,-0.02792,-0.053482,0.25254,0.22702,0.38009,-0.13,-0.283,0.074033,0.2271,0.04858,-0.23197,-0.002485,-0.002485,0.15051,-0.078966,-0.10449,0.32905,0.099552,-0.12999,0.22711,-0.10439,-0.002423,-0.13002,-0.002467,-0.028018,0.07402,0.2781,-0.13002,0.074087,-0.078947,0.099588,-0.05347,-0.053458,-0.20655,0.20155,-0.002497,-0.12999,0.074044,-0.05347,-0.078898,-0.23201,-0.15548,0.20161,0.048525,0.099479,0.278,-0.027969,0.22706,-0.002405,-0.35946,-0.18093,-0.30852,0.099534,-0.07899,0.15055,0.0485,0.27806,0.35457,-0.20645,-0.12995,0.12503,-0.078977,-0.2575,0.12507,0.048536,0.12508,0.099534,-0.23203,-0.12999,-0.053421,0.20163,-0.05347,-0.28307,0.38011,0.32903,-0.027998,-0.027956,-0.35954,0.15059,-0.334,0.023072,-0.002454,0.048525,-0.283,-0.028018,0.15056,0.099528,-0.18098,0.25257,0.09957,0.1251,-0.002423,-0.18099,-0.33404,0.35464,-0.30859,0.6096,-0.18105,-0.23199,-0.18098,-0.15545,-0.05347,-0.12995,0.048536,0.02301,0.099521,-0.027969,0.40559,-0.078977,-0.078928,0.048549,-0.10449,0.074051,0.12503,0.023017,-0.10449,0.22709,-0.12999,0.099601,-0.30849,0.048561,-0.181,0.07402,0.25259,0.074002,-0.028023,0.27806,0.17607,0.02309,-0.23196,-0.20647,-0.05347,0.25256,0.023023,-0.25753,0.074062,0.023005,0.1506,-0.053458,-0.30847,-0.078959,0.023029,0.38011,0.12504,0.17598,-0.028023,0.048549,0.023078,-0.23198,-0.30851,-0.10443,0.023047,0.12507,0.3291,0.15052,0.15054,0.12504,0.12503,-0.002461,-0.12994,-0.20646,-0.002472,-0.002461,-0.28303,0.20155,0.35456,0.3546,-0.35952,-0.078928,-0.10441,-0.28298,-0.13002,0.023041,-0.15549,0.35454,0.30353,0.15049,0.22706,-0.38499,-0.15543,-0.1554,0.048622,-0.35957,0.25257,0.1505,-0.028011,0.099546,-0.18101,0.09957,0.023065,-0.053439,0.20159,-0.12999,0.074038,-0.079026,0.32905,0.38008,-0.18096,-0.20646,-0.41049,-0.385,0.2016,0.17601,0.20153,-0.23202,0.2781,0.32913,0.048518,-0.18096,-0.002479,-0.35948,-0.15548,0.023023,0.02301,0.20153,0.048525,-0.078972,-0.078984,0.099608,-0.027969,-0.10444,0.048543,-0.1045,0.099552,0.22709,-0.028042,0.4311,-0.20645,-0.10445,-0.12996,0.17612,-0.18101,-0.23202,-0.028029,0.32904,0.17607,-0.02798,-0.10447,-0.15546,-0.10444,-0.30849,0.099552,0.12506,0.074013,0.02301,0.15052,0.074057,0.12506,-0.20646,-0.10446,-0.05347,0.048536,0.50765,0.04861,-0.10453,-0.15555,-0.18103,-0.079002,-0.078935,0.099626,-0.12999,0.40563,-0.02798,0.048518,0.15054,0.048543,-0.12999,-0.027956,-0.23199,-0.12994,-0.10449,0.12505,0.12501,0.32905,0.022998,0.023072,-0.2575,0.17608,0.3801,-0.23198,-0.18099,-0.20649,-0.078923,0.12507,0.0485,-0.18105,0.15057,-0.078953,-0.33403,-0.12996,0.074013,0.2781,0.20155,0.35459,0.099497,0.048531,-0.078977,0.023041,-0.10447,-0.078923,-0.002454,0.099577,-0.18101,-0.078984,0.20154,0.2271,-0.10454,-0.078977,-0.027974,0.099619,-0.12998,-0.232,-0.1045,0.30361,0.32905,-0.30856,0.22705,-0.28295,-0.25753,0.35462,0.048518,-0.12994,-0.3085,-0.053482,-0.1045,0.09957,-0.053476,0.074026,-0.027969,-0.078947,0.074075,0.20155,0.09954,0.048555,0.074002,0.02301,0.023029,-0.13002,-0.053415,-0.2065,-0.10443,-0.078972,0.023059,0.074013,0.40557,-0.027993,0.27805,-0.002479,-0.30847,-0.20644,-0.41047,0.15052,-0.05347,0.15048,0.38008,0.125,0.023041,-0.20652,0.12515,-0.027925,-0.10445,-0.15549,-0.18101,0.02301,0.048506,0.17604,0.099521,0.023023,-0.10443,-0.1044,-0.2575,0.22704,-0.15552,0.2526,0.074038,0.15054,-0.15551,-0.10447,-0.25746,-0.12994,-0.23203,0.32907,0.22705,0.12505,0.58406,-0.18097,-0.078972,0.048561,-0.30847,-0.23199,-0.15548,-0.053476,0.25257,0.048482,0.20157,-0.15555,0.25265,-0.15547,-0.20648,-0.10442,0.023047,-0.002485,0.09951,0.12504,0.43103,-0.078996,-0.28298,-0.23198,-0.002443,-0.002418,0.023047,-0.28298,0.6861,0.20155,-0.002436,-0.1045,-0.078959,-0.23202,0.023072,0.12505,-0.053506,-0.002461,0.023047,-0.053476,0.30354,0.074026,-0.002479,-0.15546,-0.28298,-0.12998,0.30363,-0.10452,-0.027962,-0.078996,-0.181,-0.053495,0.12504,0.27802,-0.002467,-0.18092,-0.25747,0.15057,-0.283,-0.43602,0.5076,0.32902,-0.12999,-0.078923,-0.20646,-0.1045,0.09954,-0.002467,-0.027987,0.099552,0.048512,-0.002461,-0.02798,0.074069,-0.053464,-0.18095,-0.15547,0.074026,0.32912,0.099528,0.22704,-0.20655,0.15056,-0.2575,0.023121,-0.23199,-0.18097,-0.23202,-0.002423,0.15054,0.17601,0.12501,0.17607,-0.20652,-0.10445,-0.15544,-0.18101,0.35458,0.25261,-0.15551,0.099503,-0.053488,-0.30854,-0.053433,-0.002448,0.099552,-0.10449,0.099564,0.2271,-0.078972,0.02301,0.15055,-0.079033,0.048567,-0.15548,-0.38497,-0.002454,0.15055,0.023054,-0.23205,0.27812,0.099503,0.12504,-0.053451,-0.18098,-0.30848,-0.25749,-0.25751,0.38013,0.32907,0.8136,0.073971,-0.33402,-0.30847,-0.15539,-0.30849,-0.15546,0.099552,0.25251,0.17606,0.023005,-0.028005,0.22704,0.17607,-0.15546,-0.18095,-0.20645,-0.053464,0.074038,0.048518,0.17603,0.17602,0.22708,0.023047,-0.1045,0.099613,-0.23198,0.099564,-0.13003,0.17606,-0.12999,0.074069,0.17601,0.2015,-0.15549,-0.002332,-0.20642,-0.33403,-0.12996,-0.079008,0.3545,-0.053544,0.12504,0.45666,-0.2065,-0.51252,-0.23199,0.074062,0.12504,0.12503,0.73715,-0.13004,-0.078972,-0.46152,-0.30847,-0.12997,-0.15548,0.27815,0.048536,0.02301,0.35448,0.09954,-0.35957,-0.027969,0.20166,-0.38499,-0.43598,-0.10448,0.17599,0.40565,-0.079021,-0.15553,-0.028029,0.27808,0.023072,-0.002394,-0.38503,-0.23202,0.12506,0.15054,0.48213,0.022974,0.17606,-0.23198,-0.18093,-0.078947,-0.20645,0.023047,-0.12999,0.022986,0.27804,-0.053482,-0.15549,0.30353,0.12505,-0.15548,-0.2575,-0.12993,-0.002443,-0.002461,0.35458,0.15052,0.12505,-0.20647,-0.15546,0.12505,0.048487,-0.2575,-0.002443,0.074033,0.023035,-0.10452,-0.10446,0.099564,-0.15545,-0.002467,0.099552,0.1505,-0.002412,-0.2065,-0.027987,0.3291,0.048512,-0.25753,-0.30854,-0.10445,-0.20652,0.38016,0.20158,-0.30847,0.35454,-0.053488,-0.027998,0.048543,-0.18101,-0.18097,0.023041,0.27811,0.074044,-0.078984,-0.053488,-0.2065,-0.053482,0.32908,-0.38503,-0.25745,0.048549,0.20158,-0.18101,0.15057,0.048494,-0.053513,0.023035,-0.002479,-0.078941,-0.28298,0.0741,0.25257,-0.33405,0.099552,0.22707,0.15054,0.27806,-0.30851,-0.181,0.22711,-0.46157,-0.30848,0.27814,0.15055,0.20151,-0.2065,-0.053458,-0.18098,-0.23198,-0.002454,0.023035,0.12502,0.023047,0.30353,0.023054,-0.053506,-0.10448,0.32914,-0.12996,-0.12994,-0.35954,-0.1555,-0.079014,0.12504,0.12501,0.38008,0.048543,-0.002418,-0.33396,-0.12998,0.04858,0.023054,-0.002454,-0.027987,0.12502,-0.002497,0.02301,0.38006,0.074093,-0.33397,0.30361,0.099559,-0.15545,-0.20651,-0.053495,-0.07899,0.17601,0.02301,0.073989,0.5332,-0.12994,-0.027907,-0.48702,-0.23196,0.12502,0.22703,0.22704,-0.02798,-0.12996,-0.18096,-0.30852,0.22707,0.2016,0.20153,-0.027993,0.40556,0.048512,-0.1555,-0.33399,-0.28299,-0.15546,-0.053439,-0.283,0.53311,0.22702,0.50759,0.12509,-0.232,-0.38503,-0.078947,-0.12995,-0.053439,-0.15551,-0.002491,0.38007,-0.10451,0.20155,0.45661,-0.10447,-0.18092,-0.48705,0.048585,-0.053488,-0.07899,0.15051,0.27805,0.15049,0.023065,0.048573,-0.28289,0.074093,-0.027931,-0.28304,-0.027987,0.073989,0.048536,0.4056,0.27811,-0.25749,-0.20649,0.40557,0.22702,-0.23197,-0.078947,0.048555,-0.078984,0.074057,-0.053482,-0.10447,-0.18098,0.048567,0.074013,0.022998,-0.027987,0.43113,-0.13001,0.099577,-0.15551,-0.02792,-0.20646,-0.10451,0.38009,-0.053519,0.48216,-0.35959,-0.12998,0.12505,0.023084,-0.20647,-0.10443,-0.20649,0.20158,-0.002479,0.07402,0.022986,0.022986,0.30359,-0.027969,-0.25743,0.43108,-0.10444,-0.25753,0.3036,0.20152,-0.079008,-0.25753,0.27812,-0.12996,-0.078972,-0.20646,-0.15548,0.20159,-0.002516,-0.027969,0.45662,-0.002479,0.099521,0.20155,0.35456,-0.078923,-0.23197,-0.027938,-0.28298,-0.15553,0.023029,0.17604,-0.002448,-0.053458,0.15058,-0.15549,0.17606,0.074033,-0.002448,0.048567,-0.002479,-0.079008,0.048531,-0.027956,0.09954,-0.25748,-0.10449,0.20159,0.074002,0.023054,-0.053519,0.20159,-0.18101,-0.28303,-0.00243,0.099595,-0.18097,0.12505,-0.07899,0.15052,-0.027998,0.048518,0.30359,0.15053,0.023078,-0.28296,-0.12994,-0.027938,-0.18099,0.12501,0.02298,0.048536,-0.13,-0.079002,0.048555,0.17606,-0.12995,0.1506,-0.20651,-0.30849,0.63517,-0.1045,-0.079021,-0.10448,0.2526,0.074075,-0.079014,0.15054,-0.10447,-0.002454,-0.002503,-0.079002,0.074013,0.023047,0.074093,0.12516,-0.30851,-0.12994,-0.078996,0.023017,0.30353,0.048525,0.27808,-0.18103,-0.078953,-0.12996,-0.12995,-0.053476,0.22703,0.35462,0.48209,-0.15554,-0.35951,-0.002405,-0.28298,-0.23197,0.048549,0.09957,-0.053506,-0.078996,0.0485,0.12502,0.45663,-0.027993,-0.053446,-0.35949,-0.35947,-0.10447,-0.05347,0.12504,0.17602,0.074026,-0.079014,0.1506,0.27808,-0.23198,-0.33401,0.074062,-0.027944,-0.25759,0.22713,0.30353,0.048506,0.074038,-0.18099,-0.002399,-0.30847,-0.30844,-0.053519,0.27805,0.048506,-0.02798,0.30352,0.07402,-0.10443,-0.12996,-0.027944,-0.10445,-0.23196,0.12505,0.074026,0.073995,0.048506,0.023059,0.15057,-0.053451,0.023041,-0.12997,-0.078966,0.048561,0.09954,-0.13004,-0.15551,0.15059,-0.053427,-0.12998,-0.002423,-0.18104,-0.28303,-0.027993,0.48214,0.71158,0.074026,-0.30851,-0.33396,0.074062,0.023054,-0.18095,0.099528,-0.15549,-0.002491,0.099534,0.074062,0.048531,-0.15545,-0.15545,-0.23199,-0.002454,0.099521,0.023023,0.30356,-0.028018,0.25257,0.048543,-0.25747,0.048567,0.099595,-0.25756,0.048629,-0.027987,-0.10452,-0.002534,0.048567,0.023047,-0.18097,0.074081,0.17611,0.20153,-0.20652,-0.07899,0.17603,-0.00251,0.074057,-0.3085,-0.12995,-0.15545,-0.027962,0.48214,-0.2065,-0.05347,-0.027987,0.099528,-0.20655,-0.053525,0.12502,0.04858,-0.25746,-0.078984,0.50776,-0.30855,0.20153,0.074013,0.048536,-0.15551,-0.10449,-0.027925,-0.30851,0.023041,-0.13001,0.35461,0.048531,-0.079033,0.22705,0.25255,-0.078972,-0.41046,-0.30846,0.20162,0.32904,-0.25751,-0.1045,0.35451,-0.027998,-0.00251,-0.28295,-0.12993,-0.10445,-0.053446,0.25252,0.22708,-0.28308,0.048518,0.12505,-0.053488,-0.053464,-0.18098,-0.23196,0.20155,-0.002467,-0.027993,-0.002503,0.023065,-0.15553,0.04858,-0.15548,-0.25746,-0.15548,0.099559,-0.00251,0.60966,0.023059,-0.002467,-0.20652,-0.30856,-0.23199,0.074093,-0.10445,0.048555,0.12504,0.099559,0.227,0.30356,0.099546,0.048555,-0.28295,-0.23197,0.30361,-0.053488,-0.30852,0.45666,0.073965,0.048525,-0.07899,-0.15546,-0.078984,0.048555,-0.35948,-0.10447,0.048536,0.20157,0.45658,0.30353,0.074051,-0.10447,-0.078972,-0.18096,0.023096,-0.027938,-0.079021,-0.002485,-0.053506,0.27808,-0.10451,0.12506,-0.053451,-0.078941,-0.12999,0.048543,0.048525,-0.10447,-0.10448,0.22708,0.30355,0.35454,-0.30849,-0.10443,-0.28297,-0.46154,-0.002467,0.048506,0.32903,0.58403,0.12503,-0.078972,-0.15545,-0.053353,-0.23192,-0.00243,-0.25751,-0.15556,0.38007,0.12499,0.22705,0.12505,-0.10446,-0.10443,0.074081,-0.10449,-0.002479,-0.002467,0.2526,0.023023,-0.1045,0.048494,-0.15548,0.2782,-0.18098,0.074069,-0.10449,-0.0535,0.17606,-0.13002,-0.027969,0.27809,0.048549,-0.078947,-0.3595,-0.053488,-0.027962,-0.18101,0.048536,0.12503,0.12505,-0.027962,-0.61457,0.25262,0.15057,-0.002448,-0.12999,-0.002479,0.40556,-0.053513,-0.078947,0.048585,-0.33402,-0.28296,0.099534,-0.053488,-0.078953,0.32906,-0.00251,0.22704,0.12503,0.074106,-0.18095,-0.53806,-0.10447,0.27811,0.099564,-0.002516,0.40562,0.15054,0.074026,-0.002503,-0.18103,-0.15548,-0.053433,-0.20647,-0.15545,0.20162,-0.002516,0.07402,0.25255,-0.10447,-0.02795,-0.283,-0.43601,0.76263,0.099559,0.099515,0.023035,-0.027993,-0.002454,-0.23199,-0.10447,-0.12994,0.17609,0.074038,-0.13001,0.15054,0.022998,0.20158,-0.002472,-0.20653,-0.078959,0.048592,0.1251,0.17611,-0.23205,-0.07899,0.25254,-0.028018,0.15054,-0.079014,-0.10444,0.048604,-0.10444,-0.23198,0.15059,-0.053488,0.074013,0.27802,0.20154,-0.10445,0.09954,-0.10443,-0.15542,-0.078984,-0.25751,-0.20652,0.20153,0.099485,0.17606,-0.232,0.15053,0.12507,0.30363,-0.436,-0.30847,-0.33401,-0.002485,-0.079033,0.43111,0.048531,0.15054,-0.15548,-0.078904,-0.20651,-0.18098,0.074026,0.17604,0.12503,0.68618,-0.48708,-0.15546,-0.15547,-0.15549,0.22707,-0.079008,-0.13002,0.15057,-0.28306,0.12507,0.32912,-0.15544,-0.283,-0.00243,0.25253,0.1251,0.048487,-0.028011,-0.079002,-0.027938,-0.15551,-0.20647,-0.027925,-0.15547,0.074013,0.32907,0.099583,-0.15551,0.048536,0.023029,-0.053464,-0.12997,-0.15545,0.048543,0.023047,0.048518,0.12507,-0.028011,0.38006,-0.078996,-0.15548,-0.12994,-0.15545,-0.12997,0.20159,-0.053476,0.20156,0.048531,-0.13005,-0.15549,0.15054,-0.10448,-0.20649,0.15066,-0.027969,-0.002461,0.022998,0.023017,-0.079026,0.22706,-0.18101,0.04858,0.099588,-0.20649,-0.002497,-0.12996,0.2781,-0.053506,-0.10453,0.2271,-0.078996,0.15059,-0.002467,-0.28298,0.27805,-0.002443,-0.079008,-0.20654,0.048555,0.17609,-0.15547,-0.41052,0.099577,0.048555,0.048512,0.048561,0.43103,0.22703,0.022986,-0.181,-0.2065,-0.027858,-0.25747,-0.078966,-0.13002,-0.053464,0.17607,0.38009,0.25254,-0.10453,-0.12999,-0.15547,-0.25745,-0.15545,-0.10449,0.12507,0.25254,0.43106,0.71158,-0.002436,-0.35951,-0.64003,-0.25746,-0.15546,0.12506,-0.078984,0.15057,0.074008,0.023023,-0.13003,0.30363,-0.078941,-0.053458,-0.12999,0.35457,0.099528,-0.10447,-0.35953,0.099564,0.12505,-0.002491,0.048561,-0.10445,-0.38497,0.40556,-0.20652,-0.027969,0.12505,0.27807,0.023029,-0.18102,0.12508,-0.23197,0.074087,-0.15551,-0.10449,-0.028018,0.25257,0.40562,0.12506,-0.30854,-0.28298,-0.30851,-0.10445,0.40557,-0.078959,0.15056,-0.079033,-0.002443,0.023054,-0.10448,-0.18098,-0.078953,-0.283,0.04858,0.12505,-0.002485,0.27803,0.32901,0.35458,-0.078972,0.023103,-0.48702,-0.10443,-0.18097,-0.078996,0.023005,0.09951,0.55866,-0.053495,-0.13,0.22702,-0.078935,-0.30852,-0.28298,-0.25752,0.048525,0.38012,0.30356,0.17606,0.048543,-0.23199,-0.20645,0.023078,-0.002467,0.023041,-0.079008,0.12502,0.074033,-0.002491,-0.12999,-0.053439,-0.25748,0.04858,0.07402,-0.002461,0.15055,0.12502,-0.053476,-0.053488,0.048531,0.099595,0.023084,-0.23199,-0.10447,-0.28306,0.30362,0.20154,-0.053555,0.25257,-0.079008,-0.15546,-0.25749,-0.053415,-0.02798,0.099552,0.048518,0.048518,0.15055,-0.078984,0.048555,0.048604,-0.10447,-0.12996,0.074026,-0.053446,0.023023,0.099521,-0.00254,-0.027956,-0.23203,0.023041,0.2526,-0.002412,0.099552,-0.18101,0.048525,-0.002516,0.1761,-0.1045,0.023072,-0.30854,-0.25746,-0.23197,0.60961,0.15054,-0.027969,-0.079039,0.023023,-0.20652,0.20159,0.38015,-0.51252,-0.43598,-0.35953,0.43102,0.4311,0.17604,-0.053513,-0.12999,-0.46154,-0.002381,-0.12994,-0.181,0.27808,0.02301,-0.028011,0.17603,-0.002485,0.048525,0.17607,-0.078947,-0.20649,-0.12995,0.2526,0.27809,-0.13,-0.053506,-0.027962,-0.18101,0.12504,0.099583,-0.23198,0.09954,0.048555,-0.18099,-0.25753,0.76263,0.023041,-0.20651,-0.053439,-0.078972,-0.10444,0.15059,0.15056,-0.10448,0.074044,-0.053482,-0.053537,-0.15555,0.30364,-0.12997,-0.23199,0.099546,0.074062,0.099546,0.099515,-0.18102,0.40563,-0.027993,-0.05347,-0.28302,-0.18095,-0.23198,0.15064,0.55859,0.20155,-0.33404,-0.232,0.27805,0.22704,-0.18101,-0.35951,-0.15546,-0.002418,-0.25751,0.30359,0.32909,0.022992,-0.18104,0.12504,-0.053446,-0.25749,-0.00243,0.099528,0.023054,0.099521,-0.027962,0.53305,-0.053464,-0.33401,-0.18097,0.12515,-0.30846,-0.002491,0.048512,0.073984,0.099515,0.27805,0.074087,-0.41054,-0.1555,0.048525,-0.15546,0.074087,-0.33403,0.048585,0.25253,0.099559,-0.10451,-0.41053,0.048536,0.17609,0.099546,0.27811,-0.30851,-0.23198,-0.15551,0.15053,0.073989,0.17607,0.09954,-0.10445,-0.25746,-0.078935,0.023054,0.023035,0.27808,-0.10454,0.099528,-0.002454,-0.20652,-0.078959,-0.2065,-0.23201,0.63524,0.25259,-0.10452,-0.079039,-0.002516,-0.18097,0.27805,-0.1044,0.023059,-0.283,-0.12999,-0.002436,0.12503,0.09951,0.15057,-0.002467,-0.12999,0.074051,-0.10445,-0.10452,-0.078996,0.20151,0.22704,0.12506,-0.079026,-0.10444,0.12513,-0.12993,-0.078972,-0.33403,0.023047,0.09954,-0.15552,-0.028011,0.25253,0.25256,-0.002448,-0.10443,-0.078947,-0.10447,0.38008,0.20155,-0.078972,-0.078977,-0.053506,0.20156,-0.28297,-0.02795,-0.2575,-0.027956,-0.10449,-0.181,0.30359,0.12502,0.0485,0.20157,-0.078947,-0.18098,-0.15548,-0.053451,0.15057,0.17606,0.074013,0.074013,0.25258,0.023047,-0.15546,-0.18098,-0.28297,0.17607,-0.10449,0.048543,0.12502,-0.00251,-0.053495,0.1506,0.048525
0.048506,-0.053506,0.023023,-0.10449,-0.10443,-0.10447,0.099577,0.17604,0.023047,-0.078996,0.023047,-0.079008,-0.05347,0.023047,-0.10445,-0.10445,0.048543,-0.10449,0.15054,0.17604,0.15054,-0.027962,-0.053482,-0.10446,-0.15547,-0.28297,0.023047,-0.027969,-0.07899,0.12506,0.20153,0.12502,0.02301,0.023047,-0.053451,-0.12996,-0.002461,-0.002448,-0.027987,0.15056,0.048512,0.12505,-0.053482,0.023065,-0.10444,-0.053446,-0.10446,-0.078996,0.048555,0.099515,0.15054,0.074013,-0.053476,0.023035,0.12509,-0.10446,-0.027944,-0.30852,0.023023,0.12505,0.40559,0.12503,0.023023,-0.23198,-0.25748,-0.25744,0.023078,-0.078966,0.023005,0.022998,0.125,0.20153,0.17606,-0.02795,-0.12994,-0.078947,0.048573,-0.027974,-0.078959,-0.079008,-0.027974,0.074026,0.15054,-0.15552,-0.078941,-0.30849,-0.078947,0.17607,-0.027969,0.048506,0.074044,0.12502,-0.027974,-0.10449,-0.053415,-0.027944,-0.053464,-0.002503,-0.053458,0.048536,0.099559,0.048518,0.099552,-0.078996,-0.18096,-0.078953,-0.078947,-0.002485,0.023047,0.20155,0.048525,0.023005,-0.002485,-0.002443,-0.12998,-0.30847,-0.027944,-0.053482,0.099528,0.20153,-0.053482,0.12506,0.048525,-0.10446,-0.23198,-0.12995,0.1506,0.048531,0.17607,-0.002497,0.023035,-0.18101,0.023035,-0.12998,0.048549,-0.027956,0.45657,0.25257,-0.078984,-0.078966,-0.35952,-0.002485,-0.078996,0.048512,0.074111,-0.027925,0.023065,0.048543,0.023005,-0.28298,0.099528,0.32906,0.048573,-0.1045,-0.25746,-0.10448,0.55856,0.12505,-0.23198,0.099546,0.12503,-0.002485,-0.3595,-0.15548,-0.18092,0.023041,0.20156,0.099528,-0.5125,-0.2065,0.68606,0.71156,0.22705,-0.12998,-0.35948,-0.28297,-0.28294,-0.15547,0.2526,-0.23204,-0.0535,0.30354,0.17604,-0.002497,-0.053446,-0.35949,0.074075,0.22707,0.17606,0.09954,-0.10447,-0.002485,0.12506,0.20156,-0.078953,-0.25747,-0.23202,0.30362,-0.10447,-0.33401,-0.078984,0.55856,0.15055,-0.12998,-0.053451,-0.5635,-0.69106,-0.027974,0.27806,0.30357,0.58409,0.27806,-0.30851,-0.15547,0.15056,-0.027938,0.25258,-0.10447,-0.2575,0.099564,0.099528,0.099546,-0.23202,-0.053482,-0.053446,-0.12996,0.023041,0.048543,-0.10447,0.15054,-0.12999,0.15055,-0.027987,0.48206,0.023121,-0.20644,-0.027962,-0.41058,-0.30852,0.048549,0.12506,-0.027938,-0.027969,-0.18102,-0.23199,0.1761,0.30359,0.35463,-0.33402,-0.053495,-0.2066,0.30364,-0.23198,0.53306,-0.13,-0.12997,0.074062,0.099564,-0.25747,0.099521,-0.027969,-0.15554,0.17611,-0.10449,-0.12994,-0.027938,-0.078977,-0.002454,0.15054,0.023029,0.6096,0.15054,-0.38502,-0.48701,0.20164,-0.078966,0.15053,-0.002497,-0.078966,0.55854,-0.35952,0.048494,0.20156,-0.23198,-0.51244,-0.30848,-0.35948,0.35456,0.50755,0.12502,-0.053513,0.099552,0.55865,-0.18098,-0.28294,-0.25748,-0.20649,-0.002467,-0.10451,-0.079014,0.022986,0.27809,0.12507,-0.12999,-0.027962,0.20164,0.12512,-0.181,-0.02795,-0.23199,-0.002503,0.15052,0.78805,-0.38503,-0.38494,-0.12991,0.25262,-0.30852,-0.35952,0.073977,0.17597,0.12506,-0.18094,0.023065,0.40559,-0.053421,-0.23193,-0.078953,0.20154,0.58405,-0.028066,0.074038,-0.20654,-0.30851,-0.15545,-0.48696,-0.10443,0.35459,0.023047,0.3546,0.15053,0.022998,0.25253,-0.23198,-0.385,0.27818,-0.2065,-0.15552,-0.028018,-0.027993,0.12498,0.60968,-0.10452,-0.078947,-0.12996,-0.48697,0.38006,0.32907,-0.1555,-0.027962,-0.2065,-0.18097,-0.053446,-0.15548,0.023023,0.12508,0.55855,0.023047,-0.027944,-0.10452,-0.002479,-0.002503,-0.10446,-0.027969,0.09957,0.074087,0.6096,-0.232,0.074038,-0.30849,-0.28303,0.20161,-0.002454,-0.027962,-0.1045,-0.25751,0.099577,0.3546,0.074062,-0.002479,0.35454,-0.10449,-0.053476,0.048543,-0.10446,-0.43601,0.17609,-0.079002,-0.002461,0.30352,-0.12998,0.023041,0.023035,-0.15546,0.074044,-0.053464,-0.002479,-0.002472,-0.20654,0.074069,0.58415,0.12499,-0.23201,-0.53805,-0.078972,0.50761,-0.20647,-0.10444,0.27812,0.048555,-0.10456,0.15052,-0.002472,0.048536,-0.12993,-0.23196,-0.15549,0.099559,-0.1555,0.58406,0.17606,-0.181,-0.12997,-0.002497,-0.41049,-0.20646,-0.053451,0.023047,0.12505,-0.002472,0.27805,0.048525,0.048536,-0.10451,-0.078977,-0.41049,0.12512,0.81371,-0.20652,0.20147,-0.078953,-0.053513,-0.078947,-0.027974,-0.078928,-0.053451,-0.078923,-0.43605,-0.12999,0.17607,0.099497,0.27804,-0.1045,0.22704,-0.18094,-0.15548,-0.15546,0.099515,-0.002436,0.40563,0.048506,-0.15548,-0.12998,-0.30851,-0.027956,0.2015,0.15061,0.17608,-0.027974,-0.027987,0.073984,-0.1555,0.07402,-0.027925,-0.41049,0.09954,0.074051,-0.12996,-0.12998,-0.027969,0.25255,0.15049,0.099564,0.048543,-0.30851,0.40571,-0.23197,0.048531,-0.25756,-0.25755,-0.18103,0.66062,0.25256,-0.002467,-0.07899,-0.28297,-0.30846,-0.46149,-0.28298,0.48209,0.43104,0.45656,-0.002418,-0.10448,-0.28302,-0.28295,-0.12996,0.12504,0.32904,-0.079021,0.09957,0.35459,-0.15548,-0.078935,-0.46151,0.278,-0.12996,0.27812,-0.027993,0.048494,0.22707,-0.25756,-0.10449,-0.002454,0.023029,-0.4615,0.023072,0.17604,0.48208,0.12505,-0.10449,-0.181,0.023035,-0.35953,-0.28299,-0.18101,0.27809,0.38014,-0.00251,-0.002472,0.48214,0.099503,-0.18101,-0.12995,0.25256,-0.33399,-0.53804,0.023059,-0.10447,0.023023,0.12503,0.50757,0.099528,0.25257,-0.33395,-0.30846,0.099552,-0.18097,-0.46154,0.53307,0.43104,0.12506,0.12504,-0.18096,-0.23202,-0.18095,-0.25746,-0.25748,-0.10449,0.4566,0.15052,0.20152,-0.13,-0.1045,0.023096,-0.23197,-0.10445,0.15056,0.099503,0.099546,-0.13001,0.074044,-0.1045,0.12507,0.074075,-0.10444,-0.30848,-0.28302,-0.0535,0.40557,0.22704,0.20156,0.2271,-0.12999,-0.385,-0.20647,0.15053,0.30358,-0.38503,-0.053513,0.074038,0.12502,-0.05347,0.15057,0.099564,-0.28295,-0.23196,0.27806,-0.002479,-0.18102,0.074013,-0.027993,0.099534,0.048536,0.04858,-0.23199,-0.053427,0.074038,0.023035,0.023035,0.17601,0.20154,0.07402,-0.18097,-0.23197,-0.20644,-0.12994,0.048518,0.048573,0.50759,-0.20653,-0.002503,-0.027998,0.2526,0.048531,-0.10444,-0.23197,0.023084,-0.15548,0.55857,-0.002503,0.023017,0.099546,-0.20647,-0.18097,-0.18094,-0.078959,-0.10448,0.27807,0.15054,0.12504,-0.079002,0.048561,-0.18097,0.074057,0.023023,0.25259,-0.12995,-0.181,-0.25751,0.048543,0.074033,0.12503,0.17603,0.099601,-0.12995,-0.20646,-0.20648,-0.2065,0.074026,-0.028018,0.38005,0.074013,-0.10448,0.15062,0.25268,-0.38502,0.32905,-0.053482,-0.25753,0.25252,0.15052,-0.283,-0.12998,-0.41049,0.27814,-0.23199,-0.12998,0.048525,0.40563,0.25249,0.023005,0.023005,-0.053446,0.074124,-0.078953,-0.18097,-0.027987,0.099515,0.27803,-0.002485,-0.053482,-0.15549,-0.002436,-0.28298,-0.002423,-0.05347,0.074033,-0.20649,0.50757,-0.053513,0.074026,0.12505,-0.18098,-0.002423,-0.053433,-0.18098,-0.027998,0.1506,0.55854,-0.23202,-0.28302,-0.053464,-0.078947,-0.35954,0.023072,0.048536,0.30357,-0.002454,0.048536,0.20155,0.022998,0.17604,0.12502,-0.053421,-0.43595,-0.02792,-0.053513,0.20154,-0.078977,-0.079014,0.022998,0.099528,-0.002412,0.09954,-0.20646,0.15057,-0.15547,0.048549,-0.002467,0.12501,0.20152,0.099546,-0.078959,-0.30851,-0.053415,0.048536,-0.078984,-0.027956,0.099564,0.22704,0.43104,-0.053464,-0.18097,-0.41046,-0.48701,-0.027931,0.17609,-0.053482,-0.10453,0.32904,0.32904,0.15054,-0.027956,-0.078947,-0.20643,-0.12996,0.07402,-0.10452,0.38006,0.12505,-0.12999,0.20157,-0.078923,-0.12996,-0.4615,-0.2575,0.023035,0.074033,0.2015,0.048518,0.074038,0.074057,-0.027938,0.023054,0.099546,0.12505,0.07402,-0.18097,-0.078996,0.22709,-0.002491,-0.027944,-0.05347,-0.25753,0.099619,0.048518,0.023084,-0.1045,-0.002461,0.38003,-0.053506,-0.078972,0.20155,-0.1555,0.58417,-0.385,-0.23197,-0.334,-0.12998,-0.20649,0.35456,0.25254,0.53308,-0.28298,-0.33399,-0.15545,0.12507,0.048567,0.15054,0.12499,0.12499,0.099546,0.20162,-0.3595,-0.30847,-0.078953,0.12509,-0.027993,0.25256,0.023005,-0.232,0.074038,0.17604,-0.002461,-0.053439,-0.2575,-0.053451,-0.002448,0.27809,-0.002497,-0.23203,-0.15553,0.2526,-0.002461,0.12512,-0.10445,-0.10449,-0.18102,0.048512,0.12501,0.023047,-0.05347,0.27806,0.35458,-0.18096,-0.18095,-0.10449,-0.027931,0.17606,-0.23204,-0.13003,-0.13001,0.074057,-0.15548,0.023078,-0.078959,-0.053476,0.074026,0.55864,0.07402,-0.053519,0.023029,-0.15548,-0.078959,-0.12993,-0.15546,-0.05347,0.048536,0.15052,0.17602,-0.13001,-0.1045,-0.002418,-0.10444,-0.28298,-0.20647,0.12504,0.099546,0.22709,0.32905,0.15052,0.20152,0.023047,-0.12999,-0.38494,-0.71654,0.12507,0.32907,0.22702,-0.079033,-0.002485,0.12504,-0.33398,-0.10444,-0.15542,-0.10445,0.22703,0.0485,0.12502,0.099534,0.15054,0.074044,-0.12998,-0.28298,-0.053446,-0.027944,-0.078972,-0.15549,-0.028011,-0.079033,0.45664,0.3291,0.022992,-0.30851,-0.30845,-0.28301,-0.078959,0.023023,0.048536,0.09951,0.15054,0.12504,0.17607,-0.12993,-0.232,-0.20649,0.099577,-0.10448,-0.078977,0.22703,0.32907,0.48209,-0.56356,-0.15546,-0.23199,-0.12995,0.09954,0.099559,0.074038,0.17602,0.17605,-0.027962,0.22704,-0.25747,-0.30851,-0.027907,-0.02798,-0.053451,0.17607,0.15054,0.22706,0.023029,0.074062,-0.078972,-0.232,0.023059,0.15052,0.074013,0.15059,-0.079002,0.3291,-0.23199,-0.33398,-0.23198,-0.18097,-0.10447,-0.027987,0.20153,0.43108,0.22704,-0.20651,0.45656,-0.12996,-0.027889,-0.25749,-0.053421,-0.027987,0.074026,-0.12998,0.17606,0.022998,0.27805,-0.002461,-0.15546,-0.283,-0.30851,0.023035,-0.002467,0.43113,0.074013,0.07402,-0.15553,-0.027969,-0.15548,-0.12995,-0.002454,-0.027962,-0.027993,0.17608,0.53307,0.09954,-0.18098,-0.25747,-0.2575,-0.25745,-0.18097,0.048549,0.023017,0.07402,0.27802,0.76259,0.20157,-0.18099,-0.46151,-0.38497,-0.053464,0.22712,-0.053476,0.09957,0.12501,0.12503,0.17603,-0.10449,-0.053458,-0.25746,-0.15546,-0.053476,0.074038,0.15054,0.27806,0.17602,0.074033,-0.3595,-0.15542,0.074038,0.25259,-0.12998,-0.053451,-0.13002,0.12505,0.048536,-0.10451,-0.078947,-0.38499,0.023041,-0.02798,0.22704,0.32911,0.099503,-0.15552,-0.002503,0.04858,-0.078984,-0.18095,-0.20648,-0.053451,0.074044,0.074062,-0.10449,0.099546,0.074013,0.15052,-0.027993,-0.078947,-0.23197,-0.12994,-0.181,0.074057,0.023005,0.32911,0.20152,0.50757,-0.027962,-0.38499,-0.487,-0.12995,-0.33404,0.099546,0.15053,-0.027987,0.3291,0.074051,-0.1555,0.09957,-0.053464,0.15056,-0.20649,-0.23198,0.15052,0.53308,0.12499,-0.18097,-0.20647,-0.078923,-0.10447,-0.283,0.023035,-0.20648,-0.028005,0.3036,0.07402,0.25255,0.074044,0.023035,-0.20647,-0.18096,0.2271,0.2526,-0.053544,0.02301,-0.30857,-0.30853,-0.027969,-0.15546,0.15057,0.25259,0.074069,0.023054,-0.02798,-0.13,-0.053482,-0.15548,0.023035,-0.002461,-0.002448,-0.20649,0.12504,0.30356,-0.027987,0.074038,0.023041,0.099577,-0.41055,-0.20644,-0.078947,-0.002479,0.53307,0.12502,0.12504,0.023041,-0.20649,-0.20649,0.023084,-0.35948,-0.053458,-0.002461,0.099515,-0.10451,0.022986,0.25256,0.20154,0.17609,-0.002443,-0.12995,-0.25745,-0.027956,0.22705,-0.002485,0.15054,-0.028005,0.023059,-0.41054,0.40557,0.30369,-0.283,0.15059,-0.181,-0.18103,-0.1555,0.074026,0.023017,0.50752,0.20155,-0.027956,-0.18091,-0.28294,-0.15546,-0.078966,0.22708,0.15052,0.022992,0.12502,0.15053,0.12513,-0.35951,-0.41049,-0.027987,0.22706,0.35453,0.12504,0.45659,0.023047,-0.30846,-0.4105,-0.41047,-0.2575,-0.181,0.38011,0.27808,0.022974,0.30353,0.12503,0.15056,0.074051,-0.078917,-0.23197,-0.20647,-0.078977,0.02301,0.023023,0.15054,-0.002467,-0.078972,-0.18095,-0.12997,-0.12996,0.17608,-0.12998,0.17603,0.22701,0.17603,-0.078972,-0.10449,-0.027938,-0.078941,-0.002436,-0.078947,0.048536,-0.20652,0.048476,0.048494,0.27806,0.22712,-0.20646,-0.20644,-0.30851,-0.15548,-0.002461,0.3291,0.022992,0.073989,0.17601,0.22705,-0.053421,-0.23194,-0.33396,-0.20649,0.09954,0.074002,0.02301,0.074013,0.30359,0.099546,0.15064,-0.38499,-0.027962,0.15052,-0.12999,-0.28303,0.074013,0.30358,-0.027974,0.22704,0.023047,-0.053427,-0.35951,-0.053421,-0.20652,0.099552,0.15054,0.12505,0.15055,-0.027974,0.023059,-0.078953,-0.002491,0.099534,-0.13001,0.3801,-0.02798,-0.1555,-0.027974,-0.181,-0.027907,-0.23198,-0.23197,0.40563,0.20155,-0.053495,-0.027993,-0.1045,0.30361,-0.2065,-0.15549,-0.10445,0.074062,0.15057,0.048518,0.15057,-0.0535,-0.027969,0.17603,0.25254,-0.35951,-0.25744,-0.10443,-0.027944,0.20158,0.0485,0.073989,0.048518,0.074044,-0.12999,-0.078947,-0.18095,-0.15549,0.27811,0.12503,0.074013,-0.1045,0.27809,0.25262,-0.15549,-0.002443,0.45658,-0.078977,-0.2575,-0.20648,-0.25749,-0.079002,0.074033,-0.02798,-0.15548,0.30357,-0.002412,0.15054,0.38012,0.022974,0.20158,-0.053495,-0.51258,0.25261,0.17606,-0.1045,-0.053421,-0.10446,-0.18096,0.15058,0.048512,0.30353,-0.13002,0.048567,-0.12998,-0.002448,-0.053446,0.099588,-0.25752,0.12504,0.022992,0.099521,0.048512,0.12506,-0.078984,-0.027944,0.023059,-0.15544,0.12504,0.12507,-0.1555,-0.079002,0.20155,-0.10447,-0.027938,-0.23199,-0.18094,-0.13,0.27805,0.099534,0.25257,0.022992,0.22707,-0.15551,-0.25751,-0.23198,0.023084,-0.12997,-0.12999,0.074057,0.09951,0.15055,0.35461,-0.002461,-0.25756,0.023072,0.048585,0.048567,-0.12998,-0.053476,-0.027993,0.048487,0.25257,0.17604,0.023072,-0.15545,-0.15546,0.04858,-0.078977,0.12504,0.074033,-0.028005,0.022998,0.023041,0.099552,-0.027987,-0.053446,-0.002418,-0.20647,-0.25748,-0.12999,0.20152,0.12505,0.099528,0.099577,-0.002461,-0.027925,-0.002467,0.023035,0.048536,0.20155,0.023017,-0.028011,0.17607,0.27811,-0.23197,-0.53805,-0.027944,0.074038,0.099546,0.25257,0.27806,-0.002485,0.12507,-0.23199,-0.15545,-0.3085,-0.10445,0.023035,0.25257,-0.002472,0.023029,-0.053519,0.20154,0.12499,0.40555,0.30359,-0.28293,-0.58895,-0.41046,-0.1045,0.074044,0.22707,-0.002479,-0.079002,0.048555,-0.38505,0.12507,-0.053506,0.22709,-0.079002,0.32908,0.12499,0.38005,-0.078966,-0.12994,-0.30844,-0.18094,-0.053464,-0.053458,-0.028005,0.09954,0.07402,-0.053476,-0.10447,0.023023,-0.00243,0.099546,0.1761,-0.181,-0.078996,0.099559,0.15055,0.17604,0.25254,-0.078977,-0.28297,-0.28298,-0.18095,-0.35953,0.227,0.45662,0.40558,0.12503,-0.078996,-0.3085,-0.23194,0.023072,-0.002467,0.17605,0.25257,0.099515,-0.002485,-0.053476,-0.078977,-0.20645,-0.12996,0.17609,-0.15552,0.023023,0.048536,0.1505,0.12507,-0.02798,0.15056,-0.23196,-0.35946,-0.1555,0.15054,0.35458,0.099552,-0.2065,-0.027962,0.099515,-0.10445,-0.25748,-0.2575,0.074038,0.27805,0.22707,0.25257,0.15052,-0.12995,-0.10447,-0.078972,-0.10444,-0.078959,-0.23199,-0.12998,-0.078996,0.048512,0.60955,0.048518,0.12504,-0.078947,-0.35949,-0.30846,-0.20646,0.12509,0.38011,-0.028018,0.022943,0.17602,0.2016,-0.15547,-0.28298,-0.25748,-0.10447,0.12512,-0.078959,0.43106,0.12501,-0.0535,-0.053488,-0.002448,0.023054,-0.078972,0.048555,0.048543,-0.053482,-0.13001,0.023041,0.023029,-0.078984,-0.053421,-0.002454,0.023029,-0.23203,0.15056,-0.10446,0.099595,-0.028018,0.17603,0.43107,-0.10443,-0.20648,-0.35952,-0.41051,-0.15552,0.15054,0.20158,0.20155,-0.00251,0.27803,0.15057,-0.12995,-0.25746,-0.027913,0.074075,-0.002454,0.17604,0.17604,0.227,-0.078972,0.048536,0.04858,-0.20647,-0.28298,0.048561,-0.18101,-0.13001,0.15052,0.4566,0.048531,-0.12998,-0.05347,-0.002423,-0.078966,-0.027931,-0.002467,0.023023,0.15054,-0.13001,0.099552,-0.079002,-0.027938,0.20156,-0.28297,0.1251,-0.181,-0.053495,0.32906,-0.027987,0.099552,0.048518,-0.5381,0.15062,-0.002394,0.17609,0.074051,-0.1045,0.074013,-0.079021,0.099521,0.023059,0.023059,0.048561,-0.10444,0.074044,0.048555,-0.053495,-0.053476,-0.002479,0.12503,0.048549,-0.38503,-0.35946,-0.232,0.35462,0.40555,-0.053488,0.38007,-0.027993,-0.30848,-0.18098,-0.02792,-0.10447,-0.12996,0.20155,0.074013,0.32907,-0.028018,-0.18102,-0.15549,0.20161,-0.15546,-0.078959,0.22709,0.074057,-0.18099,-0.2575,0.074008,0.15052,0.27808,-0.2065,-0.002448,0.023047,-0.13,-0.10448,-0.07899,-0.02798,0.048549,0.023047,0.17607,0.22707,0.099552,-0.28298,-0.30851,-0.15549,0.30357,0.09957,-0.10452,0.023017,0.27806,0.12508,-0.10446,-0.38499,-0.25751,0.20158,0.099534,0.048525,0.048543,0.15056,-0.078984,0.30358,-0.053427,-0.02792,-0.002467,0.048531,-0.12996,-0.10449,-0.053513,-0.05347,0.099521,0.048549,-0.078977,-0.078959,-0.002423,0.22707,-0.053464,0.20153,0.30356,0.099534,-0.18098,-0.078947,-0.10449,-0.25746,-0.28298,0.43105,0.12507,-0.15549,0.048549,0.09954,0.023029,0.15059,-0.18101,-0.35947,-0.05347,0.20156,0.023017,0.12505,0.15051,0.12502,0.048543,0.048573,-0.12994,-0.10442,-0.002405,0.074051,-0.002472,-0.25757,0.099503,0.35456,0.35459,-0.181,-0.18097,-0.38498,-0.15547,-0.078977,-0.13,0.15056,0.45658,0.074026,-0.053495,-0.027938,-0.078947,-0.02792,-0.28303,0.023029,0.15059,-0.1555,0.32909,0.048506,0.0485,-0.30849,-0.10449,-0.053439,0.35465,0.15057,0.048512,-0.15548,-0.30854,0.074026,0.048531,-0.002461,-0.053464,-0.12998,-0.078977,-0.053464,0.17606,-0.027987,0.099521,-0.027993,-0.053506,-0.027962,0.048585,-0.23197,0.074106,0.023047,0.023023,0.023029,-0.20652,-0.027987,-0.002467,0.15054,-0.10444,-0.25746,-0.053446,0.074026,0.32906,0.20154,0.22704,-0.027993,0.023041,-0.00243,-0.35948,-0.385,0.3291,0.15049,-0.20647,-0.02798,0.17605,-0.053476,-0.07899,0.12511,-0.15549,-0.30849,-0.18097,0.12504,0.12501,0.17607,0.17605,-0.07899,0.048494,-0.027993,0.099559,-0.30844,-0.23197,0.099613,-0.10449,-0.41058,0.176,0.30356,0.12505,-0.053446,-0.12996,-0.10443,0.20155,-0.078959,0.02301,0.17603,-0.002503,0.023023,-0.20651,-0.15548,-0.30852,0.023103,0.22708,0.023072,0.023035,-0.078972,0.048482,0.12503,0.40559,0.22706,-0.20648,-0.23193,-0.33401,-0.20649,-0.05347,0.074013,-0.079014,0.048512,0.12505,0.20152,-0.12996,-0.35948,-0.053421,0.25264,0.023047,-0.027998,0.17603,-0.002528,0.073995,-0.053451,-0.078928,-0.28299,-0.15546,0.15056,0.20153,-0.05347,0.023047,0.30353,-0.078972,-0.12996,-0.02795,-0.48699,-0.23199,0.023023,0.22704,0.15055,-0.028011,0.22708,0.17605,-0.25751,0.023035,0.15063,0.074057,-0.23201,-0.05347,-0.15548,-0.053519,0.50762,-0.1045,-0.12997,-0.385,-0.20646,0.023017,0.73713,-0.23201,0.074044,0.3036,-0.027969,-0.002485,0.048536,-0.15545,-0.12998,-0.078959,-0.15549,0.1506,0.074026,-0.10454,0.099521,0.17606,-0.078947,-0.20647,-0.078941,-0.053464,0.023023,-0.078959,0.25253,0.40558,0.023017,0.074069,-0.15546,-0.38502,-0.20646,0.023023,0.023041,0.074026,0.17607,0.17607,-0.078984,-0.10449,0.20156,0.099534,-0.12996,-0.18097,0.048555,0.02301,0.09957,-0.079014,-0.18103,0.27806,0.099546,-0.02795,-0.23197,-0.538,0.20155,-0.053495,0.38008,0.048543,-0.15552,0.17607,-0.181,-0.078935,-0.23198,-0.12999,0.2781,0.20157,-0.079014,0.099497,0.17601,0.30354,0.023029,0.074093,-0.25743,-0.18091,-0.23199,-0.078935,0.12506,-0.002516,0.099528,0.20154,0.048531,-0.10447,-0.15546,-0.18098,-0.10447,0.25258,0.17601,0.15052,0.15057,-0.027993,-0.23198,-0.15546,-0.002418,-0.10444,-0.05347,-0.027998,0.12505,0.25254,0.023029,0.12504,0.048536,0.3291,-0.15548,-0.18097,-0.18098,-0.027987,0.15059,-0.028029,0.048555,0.099577,-0.10447,-0.23197,-0.18101,-0.35952,-0.002467,0.35461,0.099546,0.22704,0.023005,0.07402,0.17604,-0.02795,-0.20644,-0.25746,-0.15546,0.3291,0.12501,-0.002479,-0.027962,-0.13002,0.12509,0.25255,-0.35952,-0.15548,0.12505,-0.053446,0.074026,-0.027993,-0.2065,0.5076,-0.1045,-0.18095,-0.25748,-0.41051,0.074069,0.20158,0.099546,0.12503,-0.027969,0.099497,0.22706,-0.10449,-0.15545,-0.002479,0.023072,-0.18099,0.023047,-0.079014,0.048555,-0.0535,-0.027962,-0.053446,-0.15544,-0.10444,0.22702,-0.027993,0.35459,0.15054,-0.23201,0.25257,-0.1045,-0.12994,-0.18097,-0.12996,-0.10447,0.023035,0.15055,-0.10455,0.12502,0.048531,0.20163,0.12505,-0.078953,-0.15546,-0.181,-0.078953,0.17605,-0.002485,0.073989,-0.25756,0.30364,-0.12998,0.074081,-0.12998,-0.12998,-0.12998,-0.23198,0.27805,0.17605,-0.079014,-0.002436,-0.20649,0.023041,-0.07899,-0.002454,0.38008,0.099534,0.17603,-0.002461,-0.10449,-0.30848,-0.30851,-0.18094,0.099564,-0.053464,0.2781,-0.02798,0.12503,0.17606,-0.002503,-0.10448,-0.027974,-0.20647,-0.027956,0.074075,0.074062,-0.15552,0.25256,-0.20653,-0.027987,-0.02795,-0.18095,-0.002412,-0.027974,0.12506,0.27808,0.22704,-0.20653,-0.18099,-0.13,0.12507,-0.078972,-0.00243,-0.10444,0.074038,0.15059,-0.027993,0.35456,0.40555,-0.028011,-0.002448,0.048561,-0.12998,-0.23196,-0.20647,-0.18097,0.048536,0.048518,0.43107,0.099528,-0.027956,-0.15546,-0.18095,0.048561,0.074069,0.17603,0.15054,-0.10452,0.40561,-0.002412,-0.30857,0.15058,-0.15546,-0.18098,0.32904,-0.18098,0.04858,0.074038,-0.10449,0.074044,0.048543,-0.15545,-0.15549,-0.002467,0.25259,-0.079002,0.074044,0.25251,0.12504,0.1251,-0.10446,-0.10444,-0.33402,-0.18095,-0.028005,0.12504,0.12502,0.25259,-0.30851,0.20149,0.048585,-0.18095,-0.002454,-0.027956,0.023059,-0.20648,-0.02806,-0.13,0.15054,0.30363,0.35465,-0.28301,-0.25749,0.074038,-0.12999,-0.0535,-0.002497,0.53311,-0.028005,0.074093,0.022998,-0.56353,0.15063,-0.33401,-0.002418,0.099546,0.30356,0.07402,-0.053495,0.074044,-0.053464,-0.12995,0.048561,-0.078959,0.20152,-0.02798,-0.079002,0.15055,0.35454,0.074044,-0.18099,-0.23197,-0.38494,-0.053488,0.04858,-0.10445,0.38006,0.15053,-0.028005,-0.002516,0.30358,-0.12998,-0.25746,0.04858,-0.18097,-0.002423,-0.053513,-0.13003,0.099503,0.12505,-0.25756,0.048647,0.099588,0.023035,0.25257,-0.027998,-0.1045,-0.1045,0.07402,-0.13,0.15061,0.12504,-0.10445,-0.078941,-0.13001,0.20156,0.074038,0.15054,-0.2065,0.20155,0.048543,-0.18096,-0.078959,-0.002418,0.09957,-0.30856,0.20155,-0.002534,0.30354,0.27814,-0.053446,-0.20648,-0.18094,-0.20645,-0.079002,-0.18103,0.48214,0.048506,-0.028029,0.023054,-0.05347,-0.20649,0.09957,0.048561,0.048549,-0.10447,0.17606,0.023029,-0.053519,-0.002467,-0.078953,0.20164,-0.33396,-0.15548,0.15052,0.3801,0.048487,0.15048,-0.078977,-0.053476,0.45664,-0.38501,-0.51249,-0.33399,0.22708,0.048506,0.074038,0.022998,0.48209,0.074033,-0.053482,-0.053439,0.048573,-0.18095,-0.12999,0.023023,-0.10453,0.15052,0.1761,-0.053488,-0.12999,0.074081,-0.002418,-0.10448,0.023041,-0.18101,-0.078972,0.15052,0.17605,0.17603,-0.078977,-0.15545,-0.18097,-0.00243,0.048531,0.15058,0.048525,-0.027993,-0.002491,0.35458,0.074038,-0.18098,-0.30846,-0.12998,-0.078959,0.43108,-0.027993,0.074013,0.0485,-0.18097,0.099552,-0.283,-0.35945,0.023078,-0.13002,0.3036,0.17612,-0.18103,0.20149,0.12503,-0.027998,0.15059,0.20159,-0.30847,-0.30849,-0.027969,0.12503,0.22705,0.023023,-0.1045,-0.07899,0.35464,-0.12994,-0.46153,-0.002436,-0.027969,-0.10449,0.12502,-0.13006,0.02298,0.2526,0.15064,-0.027931,-0.002436,-0.053451,-0.002485,-0.15549,0.074013,-0.13001,0.022992,0.023047,-0.027938,0.048604,-0.078935,0.12502,0.099546,-0.25751,0.38002,0.30355,0.17604,-0.30847,-0.20646,-0.20644,-0.30849,-0.027956,0.07402,-0.18102,0.55864,0.22707,0.27802,-0.18098,-0.078959,-0.28297,-0.15548,0.048518,0.22707,-0.002479,0.15053,0.048531,-0.053506,0.048567,-0.053427,-0.25745,-0.10448,-0.002443,-0.053476,-0.12999,0.30353,0.099534,0.32905,0.22704,-0.20648,-0.078941,-0.002436,-0.3595,-0.002418,-0.078984,0.048525,0.09951,0.074069,0.022998,0.40559,-0.078959,-0.25748,-0.002467,0.048598,-0.078984,-0.25754,0.35463,0.09954,-0.053488,-0.18098,0.12509,-0.028005,0.099552,-0.1045,-0.15549,-0.028011,0.099528,0.22707,0.074051,-0.027925,0.023072,-0.12995,-0.15546,-0.078972,0.32904,0.17601,-0.028011,-0.053482,0.099588,-0.23198,-0.078972,0.048567,0.17607,-0.078959,0.22704,-0.13002,0.22708,-0.15554,0.15063,-0.18098,-0.12997,0.20156,-0.15548,-0.02792,0.15054,0.17603,0.099515,-0.002472,-0.053446,-0.2065,-0.15544,-0.20647,0.099577,0.15056,0.12501,0.048536,0.35454,0.048525,0.074051,-0.15546,-0.33404,-0.33398,-0.02795,-0.078966,-0.002497,-0.02798,0.22705,0.3801,0.099546,-0.18096,-0.20649,-0.12996,-0.002503,0.25258,0.38003,0.1506,-0.28298,-0.15547,-0.38502,0.17604,0.074044,-0.10447,-0.002454,0.048573,-0.30855,0.099528,0.25253,0.20156,0.099552,-0.027944,-0.25744,-0.28298,-0.002454,-0.12999,0.12502,0.12502,0.15052,-0.20652,-0.18098,-0.002443,-0.002418,0.048561,-0.13001,-0.053482,0.12504,0.048506,0.023035,0.15057,-0.027907,-0.30851,0.15059,0.30361,-0.053495,-0.25751,-0.079002,-0.10452,0.20155,-0.002503,-0.15549,-0.15546,-0.15546,-0.027925,-0.12995,0.048561,0.17605,0.30353,-0.027993,0.25252,0.099552,-0.30847,-0.38495,-0.027925,0.15056,0.12505,-0.2065,0.25251,0.20157,-0.053495,-0.027956,-0.25749,-0.12995,-0.15549,0.099577,0.074038,0.35461,0.048487,-0.027987,-0.027998,-0.002461,-0.15548,-0.12994,-0.027944,-0.10448,-0.027969,-0.053482,0.12504,0.25253,0.17606,0.074038,-0.10447,-0.18097,-0.078928,-0.078966,-0.181,0.074057,0.073989,0.27803,0.048549,-0.15548,-0.20647,-0.053464,0.27805,0.074093,-0.078977,-0.12999,0.20155,-0.079021,0.17609,-0.002467,-0.2065,-0.25751,-0.38504,0.074075,0.17609,0.12504,0.17602,0.099534,0.099534,0.048561,0.20155,-0.18094,-0.23197,-0.10447,-0.053464,-0.027974,-0.079033,0.32907,0.15057,0.22706,-0.13,-0.027913,-0.15545,-0.35951,-0.12999,0.22705,0.22702,-0.13,0.40555,0.1761,-0.20646,-0.43599,-0.385,0.27808,0.25254,0.15052,0.074033,-0.078984,-0.002467,0.17607,-0.10446,-0.30847,-0.10446,0.074087,-0.027974,0.023041,0.074008,0.15054,-0.079033,-0.1555,-0.053464,0.023103,0.048531,0.048567,-0.053464,-0.078984,-0.002491,0.07402,0.09954,-0.078953,0.048549,-0.078947,-0.002467,0.048561,-0.027969,0.1761,0.22705,-0.20655,0.30358,-0.002467,-0.18097,-0.35947,-0.385,0.048543,0.099546,0.38006,0.15053,0.38008,-0.2065,0.099583,-0.28298,-0.18094,-0.20649,0.25257,-0.002472,-0.002467,-0.027987,0.048518,0.048549,-0.027969,-0.053451,-0.002443,-0.10447,0.12504,0.099528,-0.027998,0.048536,-0.053495,-0.10448,-0.41056,0.32915,0.22713,-0.23202,-0.002443,-0.46156,-0.20652,0.15056,0.32907,0.12508,-0.002467,0.074075,-0.12998,-0.12996,-0.053476,-0.053482,-0.078996,0.20152,0.07402,0.023047,-0.002485,-0.18094,-0.35946,0.15056,0.40556,0.17604,0.20158,-0.10452,-0.28302,-0.18097,-0.002387,-0.28299,-0.18097,0.023035,0.48214,-0.053488,0.25252,-0.002516,0.22699,-0.053525,0.048549,-0.15546,-0.053384,-0.20647,0.023072,-0.078959,-0.002472,0.099528,0.17602,0.099546,0.023047,-0.002448,-0.02795,-0.20647,-0.18097,0.048536,0.022986,0.25254,0.20159,0.023017,-0.10452,-0.20649,-0.12994,0.023072,-0.053482,-0.027962,0.023023,0.55859,-0.002491,-0.18099,-0.027969,-0.053458,0.2271,-0.2575,0.048531,0.17606,0.12504,0.048531,-0.10451,-0.33404,0.22714,-0.10443,-0.12996,0.048536,0.0485,-0.053458,0.15059,0.023059,0.022998,-0.23206,0.022992,-0.20647,-0.027944,-0.28297,0.15057,-0.05347,0.3801,0.023023,-0.0535,0.048525,-0.10449,-0.20644,-0.12998,0.023084,0.074038,0.12505,0.15051,0.38003,-0.0535,-0.20647,-0.053464,0.15059,-0.18095,-0.41051,-0.10447,-0.078977,0.048487,0.099466,0.27805,-0.002485,0.30363,0.12512,-0.43601,-0.38502,0.15059,0.099564,0.30353,0.2781,-0.028029,0.023054,-0.181,-0.10449,-0.23196,-0.12996,0.22706,0.35456,-0.12997,-0.002479,0.074033,0.048506,-0.15546,-0.10449,0.048567,0.12505,0.023072,-0.2065,0.023041,0.3036,-0.002485,-0.02798,-0.002479,0.3546,-0.20644,-0.41051,-0.18098,-0.10451,-0.053488,0.22702,0.60962,0.048506,-0.078966,-0.30853,-0.15546,-0.078941,0.20161,-0.12999,0.023041,0.20157,0.27803,-0.0535,0.12505,-0.10447,-0.20645,-0.25746,0.099515,-0.078984,0.048525,0.12503,0.22705,-0.12998,0.099583,-0.3595,0.023084,-0.027931,-0.027987,-0.002485,0.176,0.27805,0.20154,-0.12999,-0.23198,-0.10447,-0.12994,0.023084,-0.10447,-0.078984,-0.02798
-0.027993,0.023041,-0.028018,0.023029,-0.053476,0.099559,0.04861,-0.00243,0.12509,-0.027969,-0.13001,0.074033,-0.053513,0.099546,-0.12999,0.074044,-0.23199,-0.10449,-0.13001,-0.079014,0.048555,0.048561,0.27812,-0.078977,-0.10448,-0.002443,-0.18098,-0.078941,0.048531,0.023047,-0.079008,0.07402,0.20152,0.22705,0.074057,-0.078984,-0.15541,-0.33399,0.074087,-0.07899,0.15055,-0.027998,-0.002516,0.12505,0.20158,-0.053476,-0.078966,-0.15548,-0.002454,0.048555,0.074062,-0.053495,0.048543,0.09954,-0.02798,0.023059,-0.10447,-0.20647,-0.002461,-0.053464,0.048518,0.022998,0.17603,0.12504,0.12509,-0.283,-0.10439,-0.18098,-0.12998,-0.027993,-0.10448,0.12504,0.099528,0.17604,-0.002461,-0.002491,-0.12997,-0.053464,-0.10446,-0.027974,0.074087,0.074033,0.048549,0.022998,0.074038,0.023035,-0.1555,-0.18095,0.023059,0.099577,-0.027987,0.023023,0.074013,0.048506,0.074038,0.023041,-0.15545,-0.15548,-0.283,0.099564,0.35462,0.074038,-0.20655,0.074026,-0.053488,-0.053464,-0.10446,-0.15545,0.048543,0.12504,0.09954,0.02301,0.074038,-0.079002,0.17607,-0.002472,-0.20647,-0.15548,-0.181,0.099564,0.09954,-0.053488,0.023023,0.20153,-0.027962,0.15058,-0.027925,-0.12995,-0.053451,-0.053476,0.099559,-0.053519,0.15052,0.074026,0.023047,-0.078984,-0.18096,-0.18098,-0.053446,0.048525,0.099546,0.099515,0.20158,0.125,0.12508,-0.2065,-0.12993,-0.078923,-0.10446,-0.07899,-0.002461,0.07402,0.048531,0.099515,-0.002472,-0.053495,-0.002436,-0.002448,-0.053476,0.023072,-0.002472,-0.053476,-0.079014,-0.02798,0.074081,0.22709,-0.232,-0.078966,-0.078984,-0.053482,-0.15553,0.17604,0.074038,0.12503,-0.053464,-0.002443,-0.15546,-0.15543,-0.078977,0.048543,0.023029,0.074026,0.099515,0.09951,0.023047,-0.002472,-0.002418,-0.078953,-0.15549,-0.002443,-0.13,-0.05347,-0.002516,0.048561,0.12507,0.074062,-0.15546,-0.027956,-0.15549,-0.079002,0.048549,-0.027993,0.20159,0.023023,-0.002479,-0.05347,0.048555,-0.23197,-0.078972,0.023047,-0.027998,0.17609,-0.13003,0.09954,-0.027993,-0.002461,-0.02792,-0.053451,-0.078959,0.099564,-0.078984,-0.10449,0.0485,0.15057,0.048512,-0.027969,0.023047,-0.20647,-0.078996,-0.10448,0.15056,-0.053495,0.22707,0.074038,0.074038,-0.23201,-0.10446,-0.12994,-0.078972,-0.002467,0.074013,0.074057,0.07402,0.12504,0.023041,-0.10447,-0.053409,-0.078959,-0.027944,0.048512,0.074044,-0.028011,0.15053,0.12505,0.074026,-0.15548,-0.15548,-0.10445,-0.027913,-0.078977,0.023023,0.12502,0.25259,0.30356,-0.027993,-0.181,-0.10447,-0.15547,-0.13002,-0.10449,0.15055,0.074087,0.023023,0.023054,-0.053488,-0.02795,-0.10443,-0.12998,0.09957,0.07402,-0.027987,0.023017,0.048487,0.17606,0.022998,0.12508,-0.15546,-0.18096,-0.20647,-0.1045,-0.002454,0.09954,0.22707,0.048518,0.17607,-0.078984,-0.30851,-0.20649,-0.10447,-0.078972,0.15056,0.27808,0.074013,0.12501,-0.12999,-0.33401,-0.18091,-0.078886,0.023059,0.17601,0.15054,-0.00251,0.35454,0.45666,-0.10452,-0.25751,-0.51255,-0.33399,-0.10445,-0.002467,0.023029,0.048518,0.12504,0.048536,0.048525,0.074062,-0.027962,-0.002443,0.023065,0.074044,-0.002472,0.023041,0.022992,0.023017,0.023029,-0.027969,0.099626,-0.23201,-0.053458,0.048518,-0.078984,0.09951,0.15054,-0.002491,0.074062,-0.05347,-0.10444,-0.30848,-0.053464,-0.15549,0.15054,0.0485,0.25256,0.048482,0.25257,0.17609,-0.10445,-0.25746,-0.12996,-0.027993,0.023041,0.09957,-0.10454,0.048549,0.048543,0.17607,0.099583,-0.12996,-0.20649,-0.079002,-0.05347,0.25257,0.2781,0.12504,-0.053464,-0.18101,-0.10447,-0.1045,-0.053464,0.074038,0.048555,-0.002461,0.12507,-0.078977,-0.13001,0.09957,-0.18098,-0.12995,-0.10446,0.12506,0.048555,0.074026,0.074026,0.048494,-0.02798,-0.15547,-0.02792,-0.027944,-0.10447,-0.18097,0.074038,-0.079008,0.12502,0.32907,0.099491,-0.002461,-0.20646,-0.053415,-0.23199,0.048555,-0.002472,0.048525,0.023047,0.12504,0.099552,0.074062,-0.18098,-0.078953,-0.1045,-0.13,0.17606,0.12502,0.15054,0.099521,-0.15549,0.048536,-0.12993,0.04858,-0.053439,0.048555,-0.20652,-0.027993,-0.002516,0.30359,0.099552,0.023041,-0.25752,-0.12995,0.048549,-0.12998,-0.002467,-0.027969,0.15062,0.074002,0.15054,0.023005,-0.1555,-0.002436,-0.12999,-0.13,0.023047,0.074062,0.099546,-0.027974,-0.002443,-0.078984,-0.10443,-0.20649,-0.053476,0.02301,0.15054,0.15054,0.17604,0.12504,-0.002461,-0.1555,0.023059,-0.078935,-0.181,-0.027956,-0.028005,0.20154,0.27809,-0.053519,-0.027938,0.09957,0.023059,-0.078972,0.048536,-0.053464,-0.078984,-0.027969,-0.13005,-0.078972,0.023029,-0.053421,0.074075,0.15059,0.15058,0.048536,-0.13,0.023035,-0.13001,-0.027962,-0.13002,0.074013,0.099583,-0.053476,-0.18098,-0.078996,0.074075,0.12508,0.12505,-0.079002,0.023023,-0.10447,-0.053464,-0.28299,-0.12999,0.3036,0.25259,0.15057,-0.18103,0.074013,-0.15549,-0.078996,0.023108,-0.18098,0.048555,-0.027993,0.074044,0.02301,0.20155,-0.002472,-0.18101,0.074062,-0.18099,-0.053439,-0.15547,0.048555,-0.181,0.22705,0.50762,0.02298,-0.12999,-0.053476,-0.07891,-0.12996,-0.15547,0.048549,0.023059,0.074033,0.074013,0.20153,0.099534,0.023029,-0.20643,-0.28298,0.17607,0.048543,0.15054,-0.00251,-0.28309,0.2271,0.12507,0.074075,-0.33396,-0.20647,-0.10449,0.048536,-0.05347,0.099515,0.30356,-0.18099,-0.1045,0.048536,-0.027938,0.63515,-0.20649,-0.61452,-0.20646,0.30355,0.43105,-0.002521,0.30353,0.048536,-0.38493,-0.53801,-0.07891,-0.15548,0.048543,0.17602,-0.002503,0.30353,0.22704,0.04858,-0.15549,-0.15545,-0.10446,-0.15547,-0.20649,0.12502,0.17607,0.12501,-0.078996,-0.002516,-0.51252,0.023139,0.25259,-0.053446,0.27808,-0.002528,0.22702,-0.053495,-0.002461,-0.10447,0.048592,0.32908,-0.002516,-0.33401,-0.053353,-0.00243,0.35464,0.50755,-0.28314,-0.13001,-0.12998,-0.58901,-0.385,-0.20647,0.3545,0.96663,0.3036,-0.18092,-0.02792,0.099497,0.048506,0.048555,-0.74208,-0.86956,-0.43602,0.30356,0.58409,0.15046,0.27809,-0.05336,-0.002307,0.023133,-0.1045,-0.028029,-0.053476,-0.23209,0.048494,0.25255,-0.35949,-0.25749,0.023054,0.12504,0.023084,-0.99707,0.023035,0.53311,0.8136,0.25251,-0.5635,-0.64001,-0.053458,-0.1045,-0.48714,0.55871,1.2984,-0.18109,-0.027993,0.17612,-0.56361,-0.48706,0.48208,0.048494,-0.23194,-0.28298,-0.0535,-0.10447,-0.079033,0.63523,0.60963,0.48213,-0.25756,-0.487,-0.436,-0.71657,-0.25751,-0.027993,0.71163,-0.078959,-0.41057,-0.30855,0.53319,0.38013,0.3036,0.30351,-0.43607,-0.58904,-0.5125,0.48212,-0.053525,-0.28304,0.074057,0.89011,-0.25753,0.32912,-0.25745,-0.12999,-0.28298,-0.10449,0.023017,-0.15548,0.4822,-0.053439,0.20151,0.073989,-0.89513,-0.30848,0.99227,0.40561,-0.2066,-0.33406,0.20157,-0.078947,0.15049,0.40563,-0.63998,-0.078996,-0.1555,-0.10447,-0.18097,-0.002516,0.38024,0.20158,-0.25753,0.96659,-0.10452,0.12506,-0.079014,0.023121,-0.18095,-0.43604,0.17622,-0.41056,-0.89516,1.1708,-0.56364,0.15048,0.89018,0.89008,-0.13005,0.048592,-0.33399,-0.28302,-0.30847,0.15067,-0.13001,0.22709,0.048494,0.17597,-0.027956,-0.18097,-0.12991,-0.25749,-0.28301,0.30363,0.38001,0.78814,-0.4871,-0.23205,0.4822,-0.15543,-0.078996,-0.86957,-0.25752,-0.053519,0.81356,0.45656,0.55869,-0.53792,-0.53798,-0.232,-0.18103,0.38012,0.30357,-0.1045,-0.23201,-0.6146,0.58418,0.73717,-0.07913,-0.23204,-0.00243,0.32909,-0.48707,-0.002405,-0.053415,0.023035,-0.2065,0.27808,-0.027969,0.20159,-0.12996,-0.48705,-0.41051,0.1251,0.073984,0.68611,0.5331,-0.18104,-0.002503,-0.43602,0.20171,-0.25741,-0.10446,-0.38508,0.048482,0.15056,-0.15549,0.12503,0.15052,0.43106,-0.078923,-0.25744,0.12501,0.91582,-0.30847,-0.25752,-0.56363,-0.053549,0.099479,0.58408,-0.10447,-0.25746,-0.078966,-0.23194,-0.25754,-0.002479,0.25256,0.2016,0.12507,-0.15548,0.023029,0.099466,0.35461,0.22704,-0.35951,0.099497,-0.15546,0.50776,-0.53806,0.023029,-0.20648,-0.64002,0.55859,0.023005,0.099521,0.43109,-0.23202,-0.30845,-0.053433,0.20152,-0.078941,0.20159,-0.30855,0.25257,-0.078996,-0.10451,0.7372,0.12503,-0.20652,0.048531,0.074081,-0.43599,-0.48701,-0.18094,-0.18103,0.30352,0.099552,0.35453,-0.12998,0.023078,-0.07891,-0.30853,0.32907,0.023017,0.15045,0.50769,-0.10449,-0.43601,-0.35956,0.074051,-0.30854,-0.10444,-0.002387,-0.078984,0.53307,0.32907,-0.028029,0.38006,0.023065,-0.66553,-0.25741,-0.46148,-0.15548,-0.13,0.27809,0.32899,0.50761,0.125,-0.10453,-0.053458,0.17614,-0.25748,-0.15551,0.12509,0.15057,0.20155,-0.1045,-0.027974,-0.002436,-0.15553,-0.078928,-0.078947,-0.28305,0.43109,0.25257,0.20166,-0.10448,-0.35957,-0.20652,-0.079014,-0.18101,0.40568,-0.12993,-0.20647,0.023059,0.53302,-0.5126,-0.053525,0.89032,0.22701,-0.053372,-0.38501,-0.35956,0.074057,0.15055,-0.28299,0.30352,-0.13001,-0.33406,0.20159,0.27815,-0.6656,-0.23193,0.35465,-0.053495,-0.002521,0.25254,0.048487,-0.002491,0.53312,0.1251,-0.48695,-0.61457,0.22712,-0.35958,0.048506,0.099454,0.12497,0.43122,-0.25746,0.22708,-0.58901,0.048629,-0.35953,0.40565,0.58403,0.048487,-0.053495,-0.35949,-0.079021,-0.15553,0.30365,-0.002472,-0.053433,-0.33398,0.22704,0.12509,-0.053476,-0.027987,0.023005,0.27805,0.30369,-0.46154,-0.25749,0.048536,-0.181,-0.25753,0.27802,0.68605,0.07416,0.25264,-0.51255,-0.30846,-0.15546,-0.20652,0.17606,0.20154,0.15046,0.17602,0.074093,-0.10449,-0.053427,-0.18103,-0.079021,0.4567,-0.25746,-0.56357,0.048525,0.3291,-0.053495,0.22713,0.074062,-0.15545,-0.18105,-0.078959,-0.18099,0.20151,0.25249,0.68605,-0.4616,0.40571,-0.002387,-0.33394,0.048659,-0.41055,-0.18104,-0.30856,0.099564,0.25254,0.25254,-0.1555,-0.027969,0.25263,-0.053495,-0.12999,0.48216,0.25266,-0.43608,0.4311,-0.23207,-0.18095,-0.23199,0.07402,-0.079008,-0.002443,-0.002467,0.4566,0.48205,-0.18093,-0.35948,-0.56355,-0.15548,-0.002454,-0.15546,-0.25753,1.0942,0.22707,-0.00251,-0.13004,-0.25753,-0.15544,-0.38504,0.20161,0.20158,-0.25748,-0.33404,0.38014,0.20152,0.20156,-0.13,-0.46154,0.38025,0.40562,-0.283,-0.18105,0.27791,0.73711,0.099546,-0.53803,-0.30851,-0.28297,-0.12994,0.048629,-0.18094,-0.002479,0.099497,0.6606,-0.079014,-0.51253,0.099552,-0.30851,0.27806,0.22708,-0.15557,0.73718,0.40553,-0.002448,-0.53804,-0.079008,-0.20649,-0.23191,-0.41047,-0.589,-0.20653,0.68618,0.15052,-0.18107,0.12502,0.63514,-0.18105,-0.20645,-0.002461,0.04861,0.048555,0.35459,-0.13002,-0.28306,-0.2575,-0.027925,-0.027987,0.1506,0.50767,-0.41061,-0.15547,-0.10448,0.20155,-0.538,-0.30852,0.60959,0.20152,0.78818,0.074057,-0.61458,-0.25745,0.68627,-0.10446,0.22693,-0.28305,-0.33404,0.12507,-0.078984,-0.23197,-0.12992,-0.18097,0.023017,0.022998,0.40559,0.38007,0.25257,-0.027993,-0.25751,0.023096,-0.053464,-0.07899,-0.10449,0.27817,-0.1045,0.32907,-0.41054,-0.30854,-0.25748,-0.053446,0.2525,0.22707,0.35456,0.27805,0.074062,-0.23197,-0.35946,-0.28295,0.38024,0.12509,-0.053506,-0.18103,-0.33405,0.07402,-0.1811,0.27805,-0.053482,0.2781,0.12505,0.099534,-0.64003,-0.33404,0.48215,0.17611,0.15052,0.099497,-0.43608,-0.51252,0.22717,0.099588,-0.30846,-0.12999,0.20155,0.27799,-0.18099,0.023023,0.32912,0.25255,-0.28302,-0.053513,0.81371,-0.23195,-0.71654,0.023065,0.12499,-0.15549,-0.002461,-0.20653,-0.12997,-0.027901,0.58408,0.02301,-0.078984,-0.002454,0.023035,0.023047,0.15056,-0.35951,-0.4871,0.074069,1.1453,-0.18097,-0.41054,-0.30854,0.12502,0.30359,-0.15554,0.22711,-0.33399,-0.283,-0.15543,0.20155,0.40561,0.048476,0.02298,0.25254,-0.027974,0.074087,-0.25746,-0.20636,-0.35951,0.023041,0.15052,0.53311,0.35458,-0.25753,0.023047,-0.053525,-0.12998,-0.25744,-0.027993,0.023072,-0.053495,0.099552,-0.25759,0.023072,0.8138,-0.35957,0.3546,-0.53807,0.17617,0.048487,0.048494,0.099528,-0.23201,-0.027962,-0.30849,0.25258,-0.053482,0.12511,0.1251,-0.23198,-0.23198,0.35461,0.66052,0.15051,-0.027969,-0.18096,-0.43599,-0.12993,-0.10449,0.27812,-0.15553,0.15059,0.17604,0.02301,-0.25756,0.27808,-0.13004,0.22715,-0.43605,0.38013,-0.15548,-0.41051,-0.10451,-0.2575,0.32907,0.074044,0.43111,-0.51252,-0.18094,0.30357,0.15048,-0.078972,0.71163,-0.18101,-0.15548,-0.12997,-0.38501,-0.61452,0.55873,-0.25754,0.30358,0.15054,-0.002546,-0.002479,0.022992,0.074069,-0.56351,0.3291,0.27806,-0.1045,0.20163,-0.38504,0.15065,0.32913,-0.10453,-0.23199,-0.20652,0.43103,-0.58906,0.048622,-0.23197,-0.28302,0.38016,0.35453,0.099491,-0.028011,0.27811,-0.15544,0.15061,-0.23201,-0.07899,0.074033,0.25261,-0.15552,-0.07899,-0.053464,-0.3595,-0.53803,0.074033,0.76267,0.15054,-0.053482,-0.079002,0.099534,-0.38503,-0.30849,0.81376,0.048525,-0.43609,0.40561,0.15062,-0.0535,0.38005,-0.079008,-0.15548,-0.41053,-0.43592,0.15057,0.048512,0.022992,0.45664,-0.002461,-0.30854,0.15053,0.43109,-0.41053,-0.23195,0.48219,-0.28303,-0.28305,-0.20655,-0.23198,0.3291,0.27806,0.22707,-0.23202,0.40557,-0.12998,-0.20647,-0.3085,0.35465,0.15055,-0.30855,-0.35951,0.099588,0.12502,0.12504,0.15055,-0.20646,-0.15545,-0.33405,0.40559,0.20152,0.176,-0.002454,0.12501,-0.078904,-0.18096,-0.18102,0.048549,0.074081,0.20156,0.22705,-0.61461,0.15054,0.55869,-0.23202,-0.05347,-0.181,-0.13001,-0.33401,-0.181,0.38012,0.12507,-0.002479,-0.35955,0.15056,0.2271,0.17605,-0.079008,0.20163,-0.053495,-0.30849,-0.38505,-0.43601,-0.002448,0.25257,0.55864,-0.33402,-0.027987,0.27811,0.12502,-0.181,-0.078953,0.12509,0.099559,-0.2065,-0.46157,-0.25754,0.99227,0.25259,-0.25758,-0.53812,0.22706,-0.002448,-0.25753,-0.33393,0.45674,-0.053506,-0.027993,0.074044,0.099497,-0.15549,-0.43608,0.023023,1.0178,0.25257,-0.35956,-0.027901,-0.078966,-0.053488,-0.20652,-0.002521,0.45663,-0.15548,-0.002436,-0.46156,-0.58898,0.27815,0.38014,-0.23209,-0.02806,0.32907,-0.1555,-0.027931,0.35458,0.099559,-0.283,0.3291,-0.078972,-0.283,0.023017,0.12509,-0.33402,-0.10445,-0.078972,0.25262,-0.38508,0.45661,0.53319,-0.38506,0.07402,0.099485,0.30356,-0.35953,-0.25751,-0.002394,0.30363,-0.41052,-0.15545,0.20161,0.30347,-0.18108,0.32914,-0.078966,0.048543,-0.30852,-0.436,0.17608,-0.002418,0.023017,0.25257,-0.053544,0.43116,-0.15551,0.30362,0.09957,-0.43601,-0.51251,-0.15551,-0.078984,-0.15557,0.22701,0.71172,-0.30859,0.099601,-0.33398,0.12514,-0.1045,-0.25751,0.048506,0.15052,-0.20649,0.25252,0.35461,0.15057,0.1251,-0.61456,-0.002503,-0.053458,-0.20647,0.20163,-0.053525,-0.079033,-0.38504,0.023041,-0.33394,-0.38499,-0.027931,0.20154,0.35452,0.22701,0.099552,0.12506,-0.027969,0.099534,0.22708,-0.15549,-0.48705,-0.1554,0.048641,-0.13001,-0.079014,-0.18101,0.20156,0.53302,0.15059,-0.12995,-0.25745,-0.002497,-0.002461,0.22707,0.22701,-0.35953,-0.053451,-0.23198,-0.23198,-0.053415,0.048525,0.4566,-0.33406,0.30363,-0.10452,-0.079039,0.20161,-0.25751,-0.33399,-0.30851,0.02309,0.12502,-0.027993,0.38004,-0.002467,0.12505,-0.078977,0.32908,-0.078966,-0.23195,-0.18098,-0.15552,0.074038,0.35464,-0.002454,0.09954,0.073946,-0.028029,-0.43606,-0.027871,-0.18091,0.074069,0.048506,0.074008,0.176,0.60961,0.074038,-0.3595,-0.35948,-0.25747,-0.12998,-0.078996,0.099552,0.15051,0.12505,0.074026,-0.2065,0.15059,-0.30847,0.22706,0.17606,-0.002491,-0.20648,-0.002448,-0.18103,-0.18099,-0.13001,0.20158,0.6097,-0.15551,-0.25753,-0.078966,0.099546,0.023029,0.7627,-0.10458,-0.20649,-0.3595,-0.10444,-0.053519,-0.053439,0.12501,0.12512,-0.053495,-0.053446,0.048543,-0.10448,-0.15553,-0.20647,0.27809,0.099552,0.32907,-0.002479,-0.1045,0.4312,-0.002472,-0.0535,-0.02795,-0.35954,-0.20646,0.074093,-0.027925,0.073959,0.27805,0.17603,0.048585,-0.13,0.17612,-0.027944,-0.027956,-0.25756,0.3291,0.45661,-0.30856,0.099559,-0.10447,-0.30852,-0.13,-0.10445,0.048536,-0.12994,0.048536,-0.002467,0.25258,0.17606,-0.053519,-0.38508,0.30364,0.25262,-0.41049,-0.05347,0.2015,-0.30854,-0.18102,-0.002491,0.40565,0.3547,-0.48705,-0.10452,-0.053451,-0.12999,-0.078984,0.1251,0.27808,-0.053513,0.15054,0.20153,-0.28305,0.48221,-0.078947,-0.10447,-0.43607,0.048573,0.048512,0.12498,-0.002454,-0.2575,0.22713,-0.35951,-0.10447,0.30364,-0.15554,-0.181,0.30364,-0.13001,-0.18102,0.09951,0.43116,-0.33404,-0.002443,0.099528,0.25252,-0.41057,0.023108,-0.18093,-0.41049,-0.13002,0.15052,0.074057,0.023029,0.15055,-0.028005,-0.078977,0.17612,0.12508,0.15051,-0.078966,-0.10447,-0.12997,-0.10447,0.099564,0.07402,-0.20647,-0.30856,0.48208,0.22707,-0.18101,-0.20647,-0.23202,0.17603,0.27813,0.023017,-0.078966,-0.12998,-0.053482,-0.28299,-0.13001,0.17609,-0.15552,0.3036,0.20159,0.048512,-0.10447,0.15059,-0.48705,0.17607,-0.10451,0.81373,-0.13001,-0.35951,-0.078928,-0.33402,-0.027962,-0.18098,-0.13,0.32915,0.022937,0.17601,-0.078996,-0.18099,0.43119,-0.002528,0.17609,-0.027931,-0.079002,0.32913,-0.25754,-0.078941,-0.48706,-0.30853,0.68625,0.20156,0.073984,-0.13001,-0.079008,-0.12999,0.25256,0.22708,0.1251,-0.41049,-0.38498,0.12509,-0.20652,0.15052,0.27806,-0.079021,-0.23199,0.12507,-0.027993,0.22704,-0.23199,-0.053458,-0.002454,0.048585,-0.027987,0.20158,0.12501,-0.25751,0.58422,-0.053415,-0.20653,-0.28301,-0.20651,-0.23203,0.20149,0.22703,0.40563,0.35468,-0.56351,-0.51251,-0.28298,-0.002454,0.27808,0.22697,0.35451,0.17603,0.20159,-0.15542,-0.23202,-0.15548,-0.078941,-0.12998,0.074087,-0.10455,0.30356,0.20149,0.023047,-0.18092,-0.538,-0.23194,0.12501,0.20156,0.40563,-0.002516,-0.079045,-0.028011,0.04858,-0.053464,-0.33394,-0.12996,0.25258,-0.028005,-0.18095,-0.028005,-0.002497,0.09951,0.15046,0.32901,0.91587,-0.487,-0.97157,0.074136,-0.10445,-0.002485,-0.053495,-0.053544,0.12501,0.0485,0.22707,-0.078972,0.20161,-0.12995,-0.10445,-0.23197,-0.002497,-0.027993,0.48211,0.12506,-0.35948,-0.64012,0.3037,-0.23203,-0.10447,-0.028005,0.38002,0.048512,-0.10447,-0.25748,0.12504,0.074044,-0.002454,-0.027938,-0.002454,-0.15547,-0.33402,0.048573,0.35462,-0.027993,0.45658,0.048543,0.048506,-0.1045,-0.053446,-0.20646,-0.33401,-0.078959,-0.15551,0.15054,0.30358,0.30358,-0.078947,-0.1555,-0.1555,-0.053482,-0.15551,0.38017,0.023035,-0.18104,0.43115,-0.38505,-0.002467,-0.002479,0.099503,0.22709,-0.23199,-0.002448,-0.2575,0.17605,-0.10445,-0.053458,-0.027969,0.099534,0.099528,0.25256,0.12503,-0.25753,-0.027925,-0.078941,-0.002423,-0.053476,-0.053519,0.35461,-0.2065,0.099564,-0.283,-0.053513,0.12502,0.023029,0.074038,0.17606,0.023047,-0.10444,-0.23195,-0.00243,0.27802,0.45654,-0.15552,-0.23197,-0.56351,-0.35938,0.25265,-0.23204,-0.18106,0.50764,0.2015,0.099466,0.38004,0.12509,-0.30847,-0.20646,-0.10449,0.15057,-0.3595,0.17606,0.15052,0.30358,0.12502,0.099552,-0.20646,-0.5125,0.27814,0.43104,-0.48706,-0.41057,0.12507,0.38008,0.09954,-0.43604,-0.1045,0.15059,-0.002443,0.048549,-0.181,0.12506,0.22704,0.40562,-0.38503,-0.20652,-0.002423,-0.48702,-0.20651,0.17609,0.17605,-0.002521,0.22706,0.4311,-0.002472,-0.30855,0.023065,-0.18098,0.17609,-0.25749,0.17607,0.17601,-0.33401,-0.10452,0.30362,0.2781,-0.51252,-0.30847,0.15053,0.43108,-0.10453,0.023054,-0.46153,-0.02798,0.27808,-0.078984,0.023041,-0.027956,0.20155,0.099534,-0.053451,0.074038,-0.002461,-0.1555,-0.078996,0.35464,0.048555,0.048585,-0.28304,-0.12998,-0.33406,0.45666,0.2781,-0.28308,-0.079008,0.09951,-0.20649,0.15065,-0.002436,-0.13,0.048525,0.048494,0.048525,-0.20655,0.43115,0.074081,-0.02795,0.023072,-0.002461,-0.20649,-0.10449,0.048506,0.099546,-0.13001,-0.002467,0.43121,-0.28299,-0.10448,-0.10449,-0.002516,0.38009,0.20155,-0.13004,0.048585,-0.05347,-0.25753,-0.10445,-0.053488,0.35465,0.023029,-0.20649,-0.38502,-0.15551,0.17603,0.099497,-0.20653,0.94139,-0.43601,-0.33402,-0.20652,-0.10455,0.53315,0.048487,-0.02806,0.25257,-0.33402,-0.078917,0.048622,-0.53807,-0.053476,0.17613,0.35454,0.30352,-0.20653,0.32917,-0.30855,-0.41051,-0.28297,-0.18095,0.048525,-0.10456,0.17612,0.22703,-0.028023,0.17602,-0.20652,-0.002418,-0.078861,-0.30849,0.074002,-0.002479,-0.053525,0.074026,0.1506,0.074044,-0.41054,-0.13002,0.58422,-0.23207,0.20157,0.12504,-0.078984,-0.18095,-0.027993,-0.18101,0.17611,-0.12997,-0.10447,-0.1555,0.30355,0.15051,0.15055,-0.053482,0.12505,-0.053421,-0.079033,0.074075,-0.18095,-0.18101,-0.027962,0.048567,0.074033,-0.078996,0.15053,0.40557,0.30355,-0.53806,-0.027889,-0.078892,-0.2575,-0.43603,0.22713,0.27805,0.15052,0.45653,0.17601,0.15057,-0.35945,-0.10445,-0.25751,-0.18101,0.6607,0.38006,-0.079008,0.048592,0.023047,-0.41047,-0.002472,-0.28303,-0.027993,0.023035,0.45662,-0.053476,-0.1045,0.023035,-0.283,0.074026,0.27811,0.1251,-0.078984,-0.18101,-0.13004,0.30362,-0.079021,-0.18104,-0.23202,0.074087,0.58417,-0.23199,-0.23197,-0.33402,-0.18101,0.2781,0.38011,-0.28306,-0.053495,0.22705,0.43112,-0.46154,-0.12992,0.099619,0.12501,-0.079057,-0.079026,0.22704,0.35461,-0.02795,-0.07891,-0.10449,-0.20646,-0.2575,-0.15551,0.12504,0.22705,0.074002,0.048531,0.048585,-0.23196,-0.46151,0.048561,0.27808,0.02301,-0.20655,0.27806,0.099534,0.38011,0.09957,-0.18099,-0.56352,-0.12998,-0.027974,0.17605,-0.15553,0.25262,-0.053488,-0.002479,0.30359,-0.18098,-0.35953,-0.10444,0.20158,-0.13,0.12503,-0.15551,0.074013,-0.079021,0.32915,0.27812,0.12504,-0.15545,-0.23202,-0.181,-0.23208,0.48216,-0.079008,-0.35953,-0.12991,-0.10447,0.074051,-0.23198,0.17606,0.15057,0.27803,0.074002,0.20155,-0.028005,0.38012,-0.48703,0.04861,-0.30855,-0.027876,-0.12998,0.12503,-0.15556,-0.12999,0.048549,-0.078984,0.048592,0.048536,0.22707,0.22706,-0.10447,0.22702,0.22705,-0.079039,-0.078959,-0.12992,-0.23191,-0.181,-0.18099,0.20159,-0.41053,0.66058,0.27803,0.12511,-0.38505,-0.10444,-0.027944,-0.12999,0.20157,-0.028018,0.023059,0.32907,-0.23202,0.0741,0.15055,-0.12998,-0.078966,0.15059,0.023041,-0.30856,-0.20652,0.35462,-0.20652,0.099528,0.15057,0.15062,-0.35954,-0.12998,0.048585,-0.028005,0.048543,0.07402,0.074002,0.022986,-0.25753,0.074069,-0.38499,0.048604,-0.12996,-0.15554,-0.12998,0.43119,-0.20653,0.048463,0.12498,-0.078996,0.30364,-0.12999,0.048555,-0.1045,0.58421,-0.35954,-0.18103,-0.43602,-0.02798,0.12508,0.25261,0.022992,0.074038,0.35465,-0.053446,-0.20655,0.023041,-0.23204,0.15056,0.27815,0.048506,-0.33395,-0.46155,0.048512,0.45654,0.074002,-0.002503,0.074013,-0.027925,-0.25746,0.074087,-0.053458,0.20158,0.074026,-0.23201,-0.13,-0.10453,0.35464,-0.10454,0.099564,0.38019,-0.4871,0.099613,0.09954,-0.18104,0.099521,0.099515,0.32907,-0.25752,-0.30848,-0.18099,-0.18094,-0.078947,-0.078977,0.048494,0.53318,0.099528,-0.23203,0.048543,-0.23203,-0.53808,0.074093,0.81378,-0.002521,-0.23204,-0.18107,-0.002497,0.22701,0.023059,-0.053409,-0.71652,-0.35946,-0.15548,0.15057,0.48209,0.38003,0.12507,0.09951,0.20153,-0.13002,0.15061,0.53328,-0.35955,-0.078941,-0.15551,-0.1045,-0.30856,-0.07899,0.27808,-0.23204,0.38013,-0.12993,-0.078947,0.048487,-0.079014,-0.002467,0.25262,-0.027962,-0.15549,-0.002423,0.30359,-0.181,-0.13002,-0.078959,0.17609,0.20158,-0.10453,-0.053519,0.15048,0.15056,0.22712,-0.33401,-0.15543,-0.38504,0.15059,0.15059,-0.00251,-0.18102,-0.18101,0.25258,0.12513,-0.30849,-0.20653,0.048536,0.43112,0.12501,-0.10447,-0.18105,-0.053451,0.25259,0.43107,-0.12998,-0.18099,-0.12995,-0.20652,-0.078977,0.32911,0.023059,0.32904,-0.18099,-0.33396,-0.436,-0.07899,0.023054,0.02301,-0.002485,0.25254,0.78816,-0.20658,-0.20652,-0.002381,-0.232,-0.15547,-0.078984,-0.002491,0.25261,-0.18103,-0.053476,0.048543,0.15057,-0.15548,-0.002448,0.17605,-0.35951,0.074038,0.099546,-0.053495,0.074044,-0.10448,0.20155,-0.027969,-0.078984,0.074062,-0.48707,-0.18102,0.86477,0.07402,-0.25756,-0.18092,-0.30847,-0.35952,0.022919,0.048482,0.45662,-0.13005,0.58414,0.073965,-0.05347,-0.18096,-0.33394,-0.28294,-0.078935,-0.053451,-0.002454,-0.00251,0.20155,0.20154,0.07402,0.048549,-0.12999,-0.053446,-0.1555,-0.12995,0.022986,-0.027993,0.074038,0.17607,0.15051,-0.41058,-0.38499,0.78838,-0.25754,0.25248,-0.002497,-0.12999,-0.28305,-0.1045,-0.053451,-0.181,-0.053397,-0.053451,0.20161,0.15054,0.023029,-0.078977,0.12501,0.35453,-0.027969,0.048536,-0.002472,-0.053427,-0.1044,-0.12996,-0.1045,-0.079008,0.048549,-0.053525,0.17607,-0.079033,0.15057,0.048567,-0.12996,-0.05347,-0.002443,0.023023,-0.20655,0.1761,-0.18103,0.09954,-0.027907,-0.28303,-0.33404,0.89032,0.25264,-0.5636,-0.25758,0.15051,0.4565,-0.002491,0.12506,-0.053446,-0.12995,-0.002418,-0.05347,-0.10447,-0.07891,-0.181,0.099534,-0.028018,0.074057,0.048518,0.32915,0.023035,-0.30852,-0.20652,-0.18104,-0.00251,0.50767,-0.078966,0.15063,-0.23198,-0.18102,-0.002503,0.12504,-0.002461,0.30359,-0.002503,0.099528,-0.12996,0.30364,0.023065,-0.41055,-0.027944,-0.053421,-0.10452,0.22705,-0.20658,0.30361,-0.20649,-0.10449,0.023054,-0.30852,0.048512,0.20156,-0.002436,-0.10446,0.12504,0.22707,0.099528,-0.15544,-0.00243,0.048531,0.07402,0.15051,0.048549,0.20159,0.048604,-0.51257,0.48214,0.074093,-0.43605,0.023103,-0.20653,-0.13004,0.15056,0.12503,-0.10451,0.023035,0.023047,0.15059,-0.027974,0.17609,0.30368,-0.181,0.074026,-0.002516,-0.079033,-0.1555,-0.002485,0.27814,-0.20651,-0.10447,-0.41055,-0.23201,0.68629,-0.10452,0.15055,0.048458,0.048518,0.17606,-0.12995,-0.23201,-0.10444,-0.18097,-0.027962,-0.078996,0.32905,0.40556,0.17606,-0.2065,-0.18095,-0.46152,-0.078966,0.074062,0.07402,-0.078972,-0.35957,0.099552,0.35461,0.22712,-0.33404,-0.33398,0.15056,-0.027944,-0.078984,0.22704,0.17604,0.20153,-0.053482,-0.64009,-0.027882,0.55868,0.12506,0.38008,0.074008,-0.33402,-0.25754,-0.181,-0.028011,-0.10449,0.35473,-0.28293,-0.027962,-0.002534,0.12503,-0.028005,0.074051,0.12506,-0.38503,0.12508,-0.07899,-0.002461,0.023029,0.048531,0.15062,-0.027998,-0.23204,0.35455,0.27815,-0.46156,-0.28301,0.27812,0.12507,-0.38502,-0.30853,0.023047,0.25254,0.048525,-0.002454,0.048536,-0.002461,-0.43604,0.55873,0.099552,0.15059,-0.41055,-0.10455,0.023005,0.15053,-0.18098,-0.002394,0.099552,0.09954,-0.13,-0.15546,0.048487,0.15057,0.73723,-0.13002,-0.12997,-0.46153,-0.48705,0.40558,0.25262,-0.18102,-0.027962,-0.181,0.048518,0.27805,0.09951,-0.51249,-0.30841,-0.002467,0.099491,0.12503,0.40561,0.3291,-0.28305,-0.10449,-0.15549,0.048555,-0.334,-0.15549,0.22712,-0.053482,0.099552,0.048487,0.15052,0.25254,-0.002443,-0.12997,-0.078917,-0.385,-0.43601,-0.002443,0.35457,0.35453,0.17601,0.048512,-0.181,-0.15545,-0.18096,0.074038,-0.027974,0.12504,-0.078972,-0.027962,0.22704,0.30362,-0.20649,-0.23198,-0.28298,0.023017,0.023035,-0.027974,-0.053495,0.17607,0.048531,0.40558,-0.027969,-0.20647,0.099619,-0.41057,-0.13,0.48214,-0.10452,-0.027974,-0.13005,-0.053439,0.048592,-0.30849,0.023035,0.27808,-0.20653,0.27811,-0.053506,0.27805,-0.30849,0.15062,-0.13,-0.33404,0.12504,0.15061,0.099497,0.07402,0.048549,-0.23197,-0.18098,-0.2575,-0.053451,0.048555,0.099559,0.20156,0.17606,0.12501,0.074026,-0.02798,-0.00243,-0.25752,0.099577,0.30356,-0.078966,0.099583,-0.027998,0.12504,-0.28302,-0.33399,-0.028023,0.022992,0.45669,-0.41053,-0.41051,0.074062,0.12504,0.22707,0.048555,-0.053446,0.12505,0.38013,-0.2065,-0.053495,0.074069,-0.13002,0.048543,0.15056,-0.1045,0.099534,0.099521,0.022986,0.25258,-0.18097,-0.6655,-0.48697,-0.027925,0.20156,0.30353,0.32902,0.15051,0.12503,0.30358,0.17611,-0.25749,-0.38497,-0.15548,-0.10447,-0.002467,0.048531,-0.13004,0.048512,0.78824,-0.18106,-0.078984,0.12509,-0.61452,-0.30847,0.1505,0.40557,0.12499,0.02301,0.22707,0.17607,-0.20646,-0.18097
